#lambda/nm	C1
208.295	541
208.67	493
209.045	457
209.419	458.2
209.794	690.6
210.169	669.4
210.544	809.4
210.919	698.8
211.295	677.4
211.67	689
212.045	698.4
212.421	676.2
212.796	732.4
213.172	683.8
213.547	683.2
213.923	686.6
214.299	685.4
214.675	698.6
215.051	689.8
215.427	694.4
215.803	709.6
216.179	693
216.555	676.8
216.932	697.4
217.308	688.6
217.684	680
218.061	687.6
218.438	693.6
218.814	681.6
219.191	692
219.568	674.6
219.945	682.4
220.322	693.2
220.699	697
221.076	697.4
221.453	696.4
221.83	685
222.208	685.8
222.585	687.2
222.962	697.2
223.34	687.2
223.717	690.6
224.095	688
224.473	693.4
224.851	677.8
225.229	686.2
225.607	705.2
225.985	669.6
226.363	692.4
226.741	682
227.119	681
227.497	702.8
227.876	671.4
228.254	697.6
228.633	703
229.011	687.2
229.39	693.6
229.769	691.4
230.148	701.6
230.527	708.8
230.905	690.2
231.284	685.2
231.664	690
232.043	707.8
232.422	694.6
232.801	676.2
233.181	696.6
233.56	684.8
233.94	692.8
234.319	677
234.699	692.2
235.079	739.6
235.458	730.2
235.838	709.8
236.218	682.2
236.598	669.6
236.978	684.2
237.358	679.2
237.738	682.4
238.119	691
238.499	677.4
238.88	681
239.26	701.4
239.641	679
240.021	683.4
240.402	682.4
240.783	686.4
241.163	679.2
241.544	683.8
241.925	679.2
242.306	701.6
242.687	682.4
243.069	688.6
243.45	696.4
243.831	682
244.212	680
244.594	730.2
244.975	699.6
245.357	690
245.739	675.4
246.12	680.8
246.502	701.8
246.884	690.2
247.266	687.8
247.648	691.6
248.03	711.6
248.412	689
248.794	694.2
249.176	680
249.559	696.8
249.941	674.2
250.323	676
250.706	678.2
251.089	683.6
251.471	689.8
251.854	695.4
252.237	680.2
252.62	703.6
253.002	693
253.385	691.6
253.769	705.4
254.152	688.4
254.535	689
254.918	681.6
255.301	691.2
255.685	684.2
256.068	681.6
256.452	718.2
256.835	698
257.219	700.4
257.603	705
257.986	681.4
258.37	699
258.754	672
259.138	691.6
259.522	700.8
259.906	685
260.29	693.4
260.675	689.6
261.059	681.2
261.443	675.8
261.828	700.8
262.212	689.6
262.597	674.2
262.981	678.2
263.366	694.4
263.751	687.6
264.136	676.2
264.521	676.4
264.906	675.8
265.291	690.6
265.676	676.6
266.061	692.4
266.446	702.2
266.831	689
267.217	707.6
267.602	698.2
267.987	689.8
268.373	683.2
268.759	698.2
269.144	690.4
269.53	695.8
269.916	680.4
270.302	679
270.688	692.2
271.074	695
271.46	693.6
271.846	729.2
272.232	685.2
272.618	682.8
273.004	689.4
273.391	704
273.777	702
274.164	687
274.55	709.2
274.937	691.4
275.324	680
275.71	684.2
276.097	695.6
276.484	672.8
276.871	695.6
277.258	688.4
277.645	676
278.032	683
278.419	685
278.807	692
279.194	670.4
279.581	683.6
279.969	700.2
280.356	695.2
280.744	687.6
281.131	706
281.519	699.6
281.907	680.4
282.295	676.2
282.682	700.8
283.07	686.8
283.458	692.4
283.846	703.2
284.235	695.6
284.623	703.2
285.011	676.4
285.399	680.2
285.788	685.6
286.176	680.2
286.565	699
286.953	685
287.342	684.8
287.731	686.8
288.119	678.8
288.508	679.8
288.897	689
289.286	670.8
289.675	692.6
290.064	706.6
290.453	688
290.821	691
291.21	711.2
291.599	685.2
291.989	690.4
292.378	700.8
292.768	717.4
293.157	698.6
293.547	694.8
293.936	680.6
294.326	681.4
294.716	693
295.106	689.2
295.496	699.6
295.886	689.4
296.276	691.4
296.666	677.6
297.056	685.8
297.446	683
297.836	708.6
298.227	690.4
298.617	692.6
299.008	710.8
299.398	689.6
299.789	682.8
300.179	694
300.57	703.4
300.961	687
301.352	691.4
301.742	699
302.133	687.2
302.524	698.4
302.915	689.4
303.307	680.4
303.698	699.6
304.089	695.6
304.48	688.6
304.872	694
305.263	697.4
305.655	687.8
306.046	695.2
306.438	699.2
306.829	688.8
307.221	708.6
307.613	695.4
308.005	703
308.397	709.6
308.789	710.6
309.181	719.2
309.573	719
309.965	706.6
310.357	691.8
310.749	703.6
311.142	685.2
311.534	688
311.926	703.4
312.319	693.8
312.711	686.4
313.104	715
313.497	690.2
313.889	743
314.282	706
314.675	725.8
315.068	688
315.461	702.4
315.854	726.4
316.247	695.8
316.64	694.2
317.033	687
317.405	703.4
317.798	682.2
318.192	694.8
318.585	684
318.979	703.8
319.372	696
319.766	700.2
320.16	707
320.553	714.6
320.947	716
321.341	688.2
321.735	693.6
322.129	682.8
322.523	722.4
322.917	689.6
323.311	706.6
323.705	700
324.099	694.6
324.494	712
324.888	698.2
325.282	691.6
325.677	701
326.071	700
326.466	701.6
326.861	693.4
327.255	705
327.65	713
328.045	705.8
328.44	694.8
328.835	692.6
329.23	686.6
329.625	725
330.02	687.4
330.415	712.2
330.81	700.4
331.206	702.6
331.601	689.6
331.996	702.6
332.37	726.6
332.766	678.4
333.161	719
333.557	691
333.953	693.4
334.348	953.4
334.744	690.4
335.14	694
335.536	691.6
335.932	698.4
336.328	690
336.724	710.4
337.12	698
337.516	698.6
337.913	697.2
338.309	711.2
338.705	695.4
339.102	708
339.498	681
339.895	704
340.291	685.8
340.688	705.4
341.085	679.4
341.481	693.4
341.878	692.2
342.275	718
342.672	684.6
343.069	681
343.466	684.2
343.842	702.2
344.239	685
344.636	687.6
345.033	679.2
345.431	685
345.828	689.4
346.225	690.8
346.623	733.8
347.02	691.2
347.418	697
347.816	709.6
348.213	678
348.611	701.2
349.009	700
349.407	696.6
349.805	671.8
350.203	672.4
350.601	711.6
350.999	687.2
351.397	737.4
351.795	684.8
352.193	699.2
352.57	698
352.969	702
353.367	674.8
353.766	678.6
354.164	677.4
354.563	695.8
354.961	687
355.36	684.6
355.759	687.4
356.158	671.6
356.557	678.2
356.956	681.6
357.355	680.2
357.754	689.8
358.153	689.8
358.552	717.4
358.951	686.6
359.35	696.8
359.75	687.4
360.149	678.4
360.527	668.8
360.926	681.8
361.326	692
361.726	691.6
362.125	679.8
362.525	695.2
362.925	692.6
363.325	685.4
363.724	681.6
364.124	682.4
364.524	672.4
364.924	679.2
365.324	694
365.725	665.4
366.125	686.8
366.525	679.2
366.904	666.8
367.304	660.4
367.705	697.8
368.105	698
368.506	680.6
368.906	676.6
369.307	684.6
369.708	685
370.108	673
370.509	693.8
370.91	681.2
371.311	677.8
371.712	680
372.113	677.6
372.514	671
372.894	687
373.295	675.4
373.696	698
374.097	693.6
374.499	717.8
374.9	680.6
375.301	676.8
375.703	680.4
376.105	671.4
376.506	683.6
376.908	684
377.309	683.6
377.711	685
378.113	677
378.493	682.8
378.895	675
379.297	695
379.699	676
380.102	690.2
380.504	680.2
380.906	682.4
381.308	707.6
381.71	669.8
382.113	685.4
382.515	679.8
382.918	684.8
383.299	677.4
383.701	692.8
384.104	681.8
384.507	658.6
384.909	678.8
385.312	664.4
385.715	666
386.118	679
386.521	661.6
386.924	698.6
387.327	676
387.709	669.4
388.112	656.4
388.515	675.8
388.918	680
389.322	688.8
389.725	668.2
390.129	702.4
390.532	687.2
390.936	670.8
391.339	674.8
391.743	688.4
392.125	671.6
392.529	698.2
392.933	695.2
393.337	684
393.74	673.4
394.144	684.6
394.548	675.2
394.953	685.6
395.357	696
395.761	688.2
396.144	686.6
396.548	685.4
396.952	685.2
397.357	681.6
397.761	682.4
398.166	679.2
398.57	681.6
398.975	675
399.379	685
399.763	736.4
400.168	681
400.572	680.6
400.977	684
401.382	706.6
401.787	692
402.192	703.4
402.597	708
403.002	671
403.386	696.4
403.791	702.2
404.197	676.8
404.602	676.2
405.007	689
405.413	685.4
405.818	682.8
406.224	680.8
406.608	678.6
407.014	675.6
407.42	705.6
407.825	686.8
408.231	699.4
408.637	688.8
409.043	707.6
409.449	677.2
409.834	669.4
410.24	686.2
410.646	699.2
411.052	699.2
411.458	692
411.865	691.2
412.271	692.4
412.677	681
413.062	692.2
413.469	676.8
413.875	719
414.282	702.6
414.689	691
415.095	700.4
415.502	674.8
415.888	697.4
416.294	663.2
416.701	734.2
417.108	686.4
417.515	684.6
417.923	689.2
418.33	713.2
418.715	699.4
419.123	687.2
419.53	683.8
419.937	682
420.345	705
420.752	686.2
421.16	708.6
421.546	681.2
421.953	687.6
422.361	671.6
422.769	686.2
423.177	677.6
423.585	719.2
423.992	708.4
424.379	706.8
424.787	695.4
425.195	718
425.603	693.8
426.011	704
426.419	706.8
426.806	691.4
427.214	691.2
427.623	706
428.031	711.6
428.44	690
428.848	703.4
429.235	702
429.644	692.6
430.053	678
430.461	712
430.87	727.6
431.279	706
431.666	685.4
432.075	699
432.484	706.8
432.893	693
433.302	716.8
433.711	765.4
434.099	708.6
434.508	696
434.918	694.4
435.327	715.2
435.737	709.6
436.125	705.8
436.534	714
436.944	726.8
437.353	722.6
437.763	735.6
438.173	707.8
438.561	736.8
438.971	700.6
439.381	726.6
439.791	722.2
440.201	702.2
440.589	728.4
440.999	730.2
441.409	721
441.819	714.4
442.23	739.2
442.619	736.4
443.029	732.2
443.439	735.2
443.85	746.6
444.26	751.2
444.649	750.2
445.06	740
445.471	739
445.881	737.8
446.292	762.4
446.682	765
447.092	723.4
447.503	793
447.914	746.2
448.325	739.4
448.715	744.4
449.126	745.2
449.537	743.4
449.948	746.8
450.338	748.8
450.75	752
451.161	749
451.572	753.2
451.984	742.8
452.374	731.6
452.786	746
453.197	750.2
453.609	755.6
453.999	728
454.411	733.2
454.823	762
455.235	747
455.647	739.4
456.037	757.6
456.449	725.8
456.862	752.2
457.274	761.2
457.665	737.2
458.077	754
458.489	778
458.902	755.6
459.293	754.2
459.705	750.6
460.118	750.4
460.53	748
460.921	747.2
461.334	750
461.747	757.4
462.16	769.2
462.551	757.8
462.964	751
463.377	736.2
463.79	739.6
464.182	753.2
464.595	741.4
465.008	757
465.421	749.4
465.813	747.4
466.226	762
466.64	740.2
467.053	804.2
467.445	768
467.859	769
468.272	755.8
468.686	775.8
469.078	747.8
469.492	736.2
469.906	755.8
470.298	755.6
470.712	743.4
471.126	812
471.54	727.2
471.933	740.2
472.347	742.8
472.761	741.4
473.175	732.4
473.568	744.8
473.982	733.2
474.397	746.4
474.79	742.4
475.204	758.2
475.619	747.6
476.033	744.8
476.426	747.2
476.841	736.8
477.256	769.2
477.649	744.6
478.064	731.8
478.479	729.2
478.872	738.6
479.287	724
479.702	725.8
480.118	739
480.511	738.8
480.927	740.4
481.342	723
481.736	751.2
482.151	739.2
482.566	753.6
482.96	738.8
483.376	750.8
483.792	734.6
484.186	742
484.602	730
485.017	739.8
485.412	736.8
485.827	743.6
486.243	739
486.638	758.8
487.054	741.6
487.47	748.6
487.865	733.8
488.281	728
488.697	722.6
489.092	735
489.508	728
489.925	744.4
490.32	727.6
490.736	733.4
491.153	742.8
491.548	728.8
491.964	744.2
492.381	711.6
492.776	735.8
493.193	732.6
493.61	743
494.006	736.4
494.422	737.6
494.84	727
495.235	747.6
495.652	725
496.069	729.4
496.465	711.6
496.883	725.6
497.3	752.4
497.696	729.2
498.113	734
498.509	719.8
498.927	720.6
499.344	725.4
499.741	725.8
500.158	734.8
500.576	740.8
500.973	717.6
501.39	721
501.787	715
502.205	726.2
502.623	708.8
503.02	713.6
503.438	708.8
503.856	718.8
504.253	729
504.671	727
505.068	711.4
505.486	719.4
505.905	741
506.302	722
506.72	724.2
507.118	702.8
507.536	713.8
507.955	720.8
508.352	714.2
508.771	723
509.169	724.4
509.587	710.2
510.006	710.6
510.404	699.4
510.823	700.2
511.221	712.6
511.64	711.6
512.038	731.6
512.457	716.8
512.877	715.8
513.275	705.2
513.694	698.8
514.092	710.4
514.512	710.8
514.91	706.2
515.33	706
515.749	716.8
516.148	710.4
516.568	714.6
516.966	707.4
517.386	702.2
517.785	709
518.205	700.4
518.603	697.8
519.024	701.4
519.444	709.2
519.843	716
520.263	724
520.662	713.2
521.082	702.6
521.481	716.6
521.902	699
522.301	702.8
522.722	708
523.121	705.6
523.542	698.8
523.963	697.6
524.362	704.8
524.783	703.2
525.183	691.6
525.604	707.2
526.003	691.8
526.425	687
526.824	715
527.246	709.4
527.646	707.2
528.067	698.6
528.467	697
528.888	707
529.289	702.2
529.71	692.2
530.11	697
530.532	684.4
530.932	691.4
531.354	680.8
531.755	735.8
532.176	706.2
532.577	691.4
532.999	700.4
533.4	697.6
533.822	706.8
534.223	694.8
534.645	690.4
535.046	685.8
535.468	690.2
535.869	709
536.292	683.8
536.693	732.2
537.115	690
537.516	684.2
537.939	689.4
538.34	716.4
538.742	698.6
539.165	686.6
539.566	687.2
539.989	675.2
540.391	682.2
540.814	694.8
541.216	693.8
541.639	691.2
542.041	698.6
542.464	690.2
542.866	688.2
543.268	679.6
543.691	692.2
544.093	703.2
544.517	716.6
544.919	683.8
545.343	716.2
545.745	689.4
546.147	695.4
546.571	687.6
546.974	676
547.398	698.2
547.8	711
548.224	680.6
548.627	683.2
549.03	693.2
549.454	682.8
549.857	677.8
550.281	670.2
550.684	680.6
551.087	700.2
551.512	683
551.915	691.4
552.34	682.2
552.743	677.4
553.146	687.6
553.571	683.6
553.975	706.6
554.399	674.4
554.803	736.8
555.207	683.4
555.632	675.2
556.036	695.6
556.461	676.6
556.865	679
557.268	677.2
557.694	675.4
558.098	691.2
558.502	689
558.927	674
559.332	681.6
559.736	669.4
560.162	682.8
560.566	680.8
560.992	698.4
561.396	681
561.801	681.2
562.227	673.6
562.631	677.8
563.036	678.8
563.462	683
563.867	682.6
564.272	669.8
564.698	678.8
565.103	678.2
565.508	698.6
565.935	676.6
566.34	673.6
566.745	693.4
567.172	675.4
567.577	701.2
567.982	697.8
568.409	686.6
568.815	664.4
569.22	677.2
569.626	688.8
570.053	663
570.459	681.2
570.865	683.4
571.292	688.2
571.698	676.2
572.104	653.6
572.531	663.4
572.937	690.2
573.343	673.8
573.75	671.2
574.177	674.2
574.583	685.2
574.99	673.8
575.396	677.6
575.824	674.4
576.231	684.6
576.637	667
577.065	692.8
577.472	665.8
577.879	677.2
578.286	691.8
578.714	664.4
579.121	678.2
579.528	676
579.935	686.8
580.364	670
580.771	648.8
581.178	661
581.585	678
582.014	684
582.421	659.2
582.829	669.6
583.236	678.6
583.644	656.4
584.073	670.4
584.481	675.4
584.889	662
585.296	679.4
585.726	675.8
586.134	673.6
586.542	664.4
586.95	688.2
587.358	664.4
587.787	672.6
588.196	659.2
588.604	666.4
589.012	676
589.421	655
589.851	663
590.259	671
590.668	678.6
591.076	697.6
591.485	663.6
591.894	672.4
592.324	686.8
592.733	687.6
593.142	655.8
593.551	657.6
593.96	671.2
594.369	662.6
594.8	663.2
595.209	664.6
595.618	646.2
596.028	663.4
596.437	671.8
596.847	673.6
597.256	667.2
597.687	678
598.097	669.6
598.507	654.8
598.917	668.2
599.327	675.2
599.736	675.4
600.146	683
600.556	680
600.988	682.4
601.398	662.6
601.808	674
602.219	648.6
602.629	661.8
603.039	667.4
603.45	702.6
603.86	669.2
604.271	691.8
604.703	666.2
605.114	667.6
605.525	676
605.935	676.6
606.346	684.6
606.757	678.4
607.168	666.2
607.579	663.6
607.99	686
608.402	671.4
608.813	685.6
609.224	656.6
609.636	652.8
610.047	670.4
610.48	674.8
610.892	678.4
611.303	678.2
611.715	670.2
612.127	657
612.539	667
612.95	670.2
613.362	656.8
613.774	658.2
614.186	667.2
614.599	658.8
615.011	668.6
615.423	669.2
615.835	657
616.248	653.2
616.66	675.8
617.073	658
617.485	660.6
617.898	671.4
618.311	666.2
618.723	669
619.136	698.8
619.549	683.8
619.962	690.8
620.375	661
620.788	670.4
621.201	660.4
621.614	675.4
622.028	672.4
622.441	671.4
622.854	687.4
623.268	654.4
623.681	675.6
624.095	675.6
624.509	679.4
624.922	672.6
625.336	659.2
625.728	663.8
626.142	670.2
626.556	686
626.97	674.4
627.384	664.8
627.799	663.2
628.213	675.2
628.627	651.6
629.041	673.8
629.456	671
629.87	669.4
630.285	680
630.699	679.2
631.093	681.2
631.507	675.8
631.922	670.8
632.337	685
632.752	645
633.167	667
633.582	665.8
633.997	668.8
634.412	661
634.806	662.2
635.221	658.2
635.637	682.8
636.052	656
636.468	675.2
636.883	692.6
637.299	663
637.715	649.4
638.109	670.4
638.525	654.4
638.941	691
639.357	665.8
639.773	679.8
640.189	662.2
640.584	675.6
641	666
641.416	652.8
641.832	660
642.249	669.8
642.665	664.8
643.06	668.8
643.477	674.8
643.894	645.2
644.31	669.4
644.727	659
645.123	657
645.54	659.2
645.957	670.8
646.374	683.6
646.77	662
647.187	699.8
647.604	658.4
648.021	645.4
648.439	662.2
648.835	679
649.252	657.4
649.67	667.4
650.088	663.6
650.484	673
650.902	674.8
651.32	674.6
651.738	659.4
652.134	676.8
652.552	688.6
652.971	677
653.389	667.4
653.786	682
654.204	691.2
654.622	657.6
655.019	670.2
655.438	667
655.857	674.2
656.275	668.4
656.673	657
657.091	748.6
657.51	660
657.908	674.4
658.327	689.4
658.746	651.4
659.144	665.4
659.563	673.2
659.982	668.2
660.38	655
660.8	667.6
661.219	678.8
661.617	667
662.037	656.4
662.457	672.2
662.855	659.8
663.275	698
663.695	663
664.094	662.2
664.514	663
664.934	657
665.333	672.8
665.753	650.6
666.152	655.6
666.572	648
666.993	680.2
667.392	658.2
667.812	656
668.212	663.6
668.632	673.2
669.053	658
669.453	671
669.874	660.4
670.273	664.4
670.694	652.4
671.116	676.8
671.515	673
671.937	660.4
672.337	671
672.758	655.8
673.158	671.4
673.58	653.2
673.98	666
674.402	674.2
674.824	660.2
675.224	660.6
675.646	649
676.047	653.4
676.469	656.8
676.869	669.8
677.292	657
677.693	655.4
678.115	649.8
678.516	665.8
678.939	661.6
679.34	646.8
679.762	677
680.164	673
680.586	652.6
680.988	670.2
681.411	689.6
681.812	659.8
682.236	655.6
682.637	655.2
683.061	654.6
683.462	667
683.864	649.6
684.288	669
684.69	647.6
685.114	670.2
685.516	676.2
685.94	652.2
686.342	664.8
686.766	651
687.168	662.2
687.571	684.2
687.995	657
688.398	644.4
688.822	659.8
689.225	678.6
689.628	681.6
690.052	654.4
690.456	664
690.88	657.6
691.284	651.4
691.687	662.6
692.112	654.6
692.515	651
692.919	657.4
693.344	669.2
693.747	646.8
694.173	645.2
694.577	666.4
694.98	665.8
695.406	654.8
695.81	658.8
696.214	660.4
696.64	663.8
697.044	660.2
697.448	670
697.874	661
698.279	660
698.684	644.2
699.11	655.4
699.514	657.4
699.919	652.6
700.324	650.2
700.75	668.4
701.156	654.2
701.561	673.6
701.987	666.8
702.393	675.4
702.798	669.6
703.203	657.4
703.63	653.6
704.036	666.4
704.442	661.8
704.847	654.8
705.274	660.4
705.68	671
706.086	672
706.492	651.6
706.92	663.4
707.326	677.4
707.732	660.8
708.139	654.8
708.545	654.2
708.973	657.4
709.38	667.6
709.786	641.6
710.193	678.2
710.6	666.6
711.028	660.4
711.435	659.8
711.842	671.2
712.249	668.2
712.656	659
713.064	668.4
713.492	656.8
713.9	658.2
714.307	660
714.715	663.2
715.123	671.2
715.53	669.8
715.938	675.4
716.367	659.4
716.775	655.6
717.184	660.2
717.592	651.8
718	685.8
718.408	705.2
718.816	710.2
719.225	670.2
719.633	670.6
720.042	646.8
720.472	665.6
720.881	692
721.29	669.8
721.699	647.6
722.108	665.8
722.517	670.8
722.926	660.2
723.335	665.2
723.744	654.6
724.154	662
724.563	667.4
724.973	668.8
725.382	667.4
725.792	654.4
726.202	647.4
726.612	683.4
727.022	660.4
727.432	667.4
779.813	650.8
780.223	701.6
780.634	655.2
781.044	652.4
781.454	658.2
781.865	678.8
782.276	654
782.686	674.8
783.097	663.2
783.508	651.2
783.919	671.2
784.33	676.6
784.741	676
785.152	657.2
785.563	653.6
785.974	658.4
786.386	667.2
786.776	652
787.188	664.6
787.599	650.8
788.011	664.8
788.423	658.4
788.835	656.6
789.247	652.6
789.659	656.2
790.071	658
790.483	697
790.874	663.4
791.286	665
791.699	656.6
792.111	668
792.524	664.4
792.937	657
793.349	646.2
793.741	655
794.154	658.2
794.567	682.6
794.98	661.4
795.393	654.4
795.785	679.2
796.198	657.8
796.612	661
797.026	654
797.439	638
797.831	659.2
798.245	651.8
798.659	656.6
799.073	650.2
799.487	651
799.88	656.4
800.294	655.6
800.708	662.8
801.123	667.8
801.516	679.8
801.93	641
802.345	645.8
802.76	662.4
803.153	667
803.568	665.8
803.983	665.8
804.377	665.8
804.792	645.4
805.207	646.2
805.601	661.8
806.016	696.4
806.432	651.8
806.826	693
807.242	669
807.658	657.4
808.052	656.8
808.468	657.6
808.884	646.4
809.279	670.4
809.695	673.8
810.111	685.2
810.506	666.2
810.922	676.6
811.339	654.2
811.734	671.4
812.151	654.6
812.546	646.4
812.963	662.8
813.38	666
813.776	652.6
814.193	680.2
814.589	650.2
815.006	650.6
815.402	658.2
815.82	650.4
816.237	660.8
816.633	658.6
817.051	653.2
817.448	664.8
817.866	652.8
818.262	671.6
818.68	654.4
819.077	651
819.495	665.4
819.892	695.4
820.311	650.2
820.708	656.6
821.127	646.2
821.524	665.4
821.943	660.4
822.34	677.6
822.759	665.4
823.157	665.4
823.576	672.8
823.974	662.8
824.393	784.2
824.791	650.8
825.189	651.8
825.609	654.4
826.007	659
826.427	646.6
826.826	657
827.246	663.4
827.644	647.4
828.043	663.6
828.463	663.4
828.862	660.2
829.261	668.6
829.682	651.4
830.081	665.6
830.502	644
830.901	660.6
831.301	651.4
831.722	637.4
832.121	644.8
832.521	641.4
832.943	648.8
833.342	652.8
833.742	642
834.164	659.6
834.564	643.8
834.965	657.6
835.386	656
835.787	650
836.188	657
836.588	656.4
837.01	654.8
837.411	644.8
837.812	661
838.213	659.8
838.636	652.8
839.037	724.8
839.438	655
839.84	665.6
840.263	665.6
840.664	666
841.066	658.6
841.468	652.6
841.891	651
842.293	670.4
842.695	658.6
843.098	662
843.5	649.8
843.902	652.8
844.326	654.6
844.729	651.2
845.131	670
845.534	661.4
845.937	672.2
846.34	676.4
846.764	646
847.167	663.4
847.571	656.2
847.974	656.4
848.377	638.8
848.781	709.8
849.184	669.8
849.588	653
849.992	656.6
850.396	651.8
850.821	678.2
851.225	663.4
851.63	658
852.034	670.8
852.438	653.2
852.843	753.8
853.247	641.8
853.652	643.8
854.057	668.6
854.462	663
854.867	667.2
855.272	684
855.677	659.6
856.082	647.2
856.487	650.6
856.893	663.2
857.298	663.8
857.704	649
858.11	661.8
858.516	657.4
858.922	662.8
859.328	671
859.734	658.6
860.14	669.4
860.525	662.8
860.931	647.2
861.338	645.6
861.745	662
862.151	672
862.558	657.4
862.965	649
863.372	645
863.779	650.8
864.186	678.8
864.572	667.8
864.98	680.6
865.387	686
865.795	647.6
866.203	662.6
866.61	653.8
867.018	663
867.405	671
867.813	655.2
868.221	655.8
868.63	648.8
869.038	668.8
869.425	689.6
869.834	657.8
870.243	651.2
870.652	653.2
871.039	653.2
871.448	652.2
871.857	654.4
872.266	656.2
872.654	653
873.064	653.4
873.473	671
873.883	650.8
874.271	655.2
874.681	667.8
875.091	635.6
875.48	669.8
875.89	678.8
876.3	662.4
876.689	646.2
877.1	659.4
877.51	658
877.9	683.4
878.31	658.2
878.721	690.2
879.111	663.4
879.522	655.4
879.933	647.2
880.323	651
880.734	648.4
881.125	658.6
881.536	648.8
881.948	648
882.338	660.2
882.75	666.6
883.141	656.6
883.553	668.2
883.944	686.4
884.356	666
884.769	653.6
885.16	663
885.573	664.8
885.964	648.8
886.377	655.6
886.768	645.2
887.181	650.6
887.573	652
887.987	666
888.378	670.2
888.792	662.6
889.184	710.4
889.598	657.6
889.99	655.4
890.383	657
890.797	643.6
891.19	672.6
891.604	654.8
891.997	653.8
892.411	653.4
892.805	655.4
893.198	647.2
893.613	640.4
894.006	655
894.421	636.2
894.815	651.4
895.209	648.6
895.624	706.6
896.018	673.4
896.412	658.4
896.828	654.2
897.222	658
897.617	653.8
898.033	679.2
898.427	658
898.822	654.4
899.239	646.6
899.634	640.2
900.029	677
900.424	651.2
900.841	643.4
901.236	667.4
901.632	665.4
902.027	728.8
902.445	669.6
902.841	651.2
903.237	652.2
903.633	667.8
904.05	658.8
904.447	657.6
904.843	669.8
905.24	657.6
905.636	647.4
906.033	650.2
906.451	670
906.848	650.8
907.246	651.8
907.643	654.8
908.04	669.6
908.438	666.4
908.835	663.2
909.254	655.2
909.652	662.6
910.05	652
910.448	650.8
910.846	654.2
911.244	644.2
911.643	654.4
912.041	647.2
912.44	674.2
912.839	652
913.237	641.6
913.636	654.2
914.035	661.4
914.434	650.8
914.834	673.6
915.233	659
915.633	653.2
916.032	646.8
916.432	644.6
916.832	670.6
917.232	648
917.632	637.6
918.032	662.6
918.432	655.6
918.833	654.4
919.233	655
919.634	636.8
920.035	656.2
920.436	648.8
920.837	645.4
921.238	652.6
921.639	648.8
922.019	650
922.42	655.6
922.822	660.2
923.224	654.4
923.625	652.6
924.027	650.2
924.429	670.2
924.81	657.8
925.212	653.2
925.615	657.6
926.017	659
926.42	674
926.801	658.2
927.204	654.6
927.607	657.8
928.01	665.8
928.413	658
928.795	642
929.199	651.2
929.602	642.8
930.006	640.2
930.388	646.4
930.792	661.2
931.196	651.2
931.579	692.4
931.983	644.6
932.388	693.2
932.771	653.2
933.176	643.2
933.58	647.4
933.964	659.4
934.369	636.4
934.774	658.2
935.158	648.4
935.563	653.2
935.947	648.4
936.353	665.6
936.759	648.2
937.143	659.6
937.549	659.2
937.934	666
938.34	679
938.746	643
939.131	659.2
939.538	655.8
939.923	658
940.33	651.6
940.716	664.4
941.123	657.6
941.508	665.2
941.916	669.6
942.302	654.4
942.709	643.8
943.096	644.8
943.503	656.8
943.89	646.8
944.298	652.6
944.685	681
945.072	647.8
945.48	661.6
945.867	651.6
946.276	646.6
946.663	682.6
947.051	674.4
947.46	657.4
947.848	655.6
948.257	650.4
948.645	658.6
949.033	643.4
949.443	650.6
949.831	695.4
950.22	635.2
950.63	666.8
951.018	688.6
951.407	663.8
951.796	643.4
952.207	656.2
952.596	658.8
952.985	640.6
953.375	694
953.786	649
954.176	647
954.566	665.2
954.956	634.4
955.367	648.4
955.758	676.2
956.148	642.4
956.539	667.2
956.929	639.2
957.341	646.4
957.732	652.8
958.123	659.4
958.515	643.4
958.906	654
959.297	649.2
959.689	657.4
960.102	644
960.494	654.8
960.886	648
961.278	649.8
961.67	679.2
962.062	691
962.455	649.6
962.847	650.8
963.24	649.6
963.633	651.6
964.026	636.4
964.419	651.4
964.812	655.4
965.206	643.4
965.599	659.2
965.993	651.6
966.386	644.6
966.78	667.4
967.174	666.4
967.569	645.2
967.963	646.4
968.357	641.6
968.752	643.8
969.146	640.6
969.541	646
969.936	646.4
970.331	652.8
970.705	657.8
971.1	652.6
971.496	662
971.892	646.8
972.287	649.4
972.683	648.4
973.079	648.8
973.454	662.2
973.85	656
974.247	665
974.643	686
975.04	656.8
975.415	650.6
975.812	640.6
976.209	652.4
976.607	643.4
976.982	666.4
977.38	675
977.778	653.4
978.175	656.8
978.552	657.2
978.95	650.4
979.348	658.4
979.725	713.2
980.123	653.8
980.522	653
980.899	655.6
981.298	648.8
981.697	648.6
982.075	650.4
982.474	654.4
982.852	656.8
983.251	658.2
983.651	641.2
984.029	657.2
984.429	649.2
984.808	641.2
985.208	647.2
985.609	648.2
985.987	637.2
986.388	644.4
986.768	659.4
987.168	646.8
987.548	659
987.949	652.6
988.329	663.8
988.731	634
989.111	646.8
989.491	648.2
989.893	655.6
990.273	664
990.676	650.4
991.057	640.6
991.459	646.8
991.84	647.4
992.221	644.8
992.624	673.2
993.006	655.2
993.388	646.6
993.791	650.2
994.173	654.2
994.576	701.6
994.959	642.6
995.341	644.4
995.724	652.8
996.128	650.8
996.511	655.6
996.894	653.4
997.298	648.8
997.681	658
998.065	650.4
998.448	652.8
998.854	657.4
999.237	637.2
999.621	671.8
1000.01	668.2
1000.39	655.4
1000.8	647.6
1001.18	670.4
1001.56	660
1001.95	658.4
1002.33	662.6
1002.72	649.2
1003.13	644.8
1003.51	653.8
1003.9	645
1004.28	675.4
1004.67	647.6
1005.06	657.6
1005.44	686.8
1005.83	636.2
1006.21	647.8
1006.6	647.2
1006.99	656.6
1007.37	657.6
1007.76	643.8
1060.12	651.2
1060.51	650.4
1060.89	657.8
1061.28	664.6
1061.67	665.6
1062.06	653.6
1062.45	643.2
1062.83	636.8
1063.22	652.6
1063.61	695.2
1064	659.8
1064.39	651.8
1064.78	650
1065.14	663.8
1065.53	660.2
1065.92	658.2
1066.31	640.6
1066.7	654
1067.09	678
1067.46	664.4
1067.85	650.4
1068.24	650.8
1068.63	662.4
1069.02	641.6
1069.39	649.6
1069.78	641.2
1070.17	651.6
1070.57	642
1070.93	648.4
1071.33	644.8
1071.72	653.6
1072.11	645.8
1072.48	635.8
1072.87	656.6
1073.26	644.6
1073.64	643.8
1074.03	632.4
1074.4	650
1074.79	647.6
1075.19	651.6
1075.56	647.2
1075.95	644.6
1076.34	647.6
1076.72	647.6
1077.11	640.8
1077.48	668.4
1077.88	651.4
1078.25	643.8
1078.64	654.2
1079.02	655.2
1079.41	655.4
1079.78	649.2
1080.18	637.8
1080.55	728.6
1080.95	645.6
1081.32	635.4
1081.72	647.6
1082.09	648.4
1082.49	636
1082.86	642.8
1083.24	634.8
1083.63	631
1084.01	646.2
1084.38	654.6
1084.78	630.6
1085.16	648.6
1085.55	659.6
1085.93	661.6
1086.31	637.8
1086.7	681.4
1087.08	652.2
1087.46	647.4
1087.83	642.6
1088.23	658.6
1088.61	645.4
1088.99	653
1089.36	643.6
1089.76	653
1090.14	656.2
1090.52	653
1090.9	640.6
1091.27	654
1091.67	669.4
1092.05	649.4
1092.43	637.8
1092.81	656.2
1093.19	661
1093.57	639.6
1093.95	646.4
1094.35	657.2
1094.73	663.2
1095.11	644.6
1095.49	646.6
1095.87	646
1096.25	657.4
1096.63	662.4
1097.01	644.4
1097.39	646.4
1097.77	646.8
1098.15	647.8
1098.53	644.4
1098.91	646.6
1099.29	646.8
1099.68	669
1100.06	646.8
1100.44	639
1100.82	649
1101.18	657.2
1101.56	650.2
1101.95	645.4
1102.33	643.6
1102.71	652.4
1103.1	646.4
1103.48	626.2
1103.86	633.4
1104.22	652.6
1104.61	643.6
1104.99	639
1105.38	636.6
1105.76	651.4
1106.12	645.2
1106.51	686
1106.89	658.6
1107.26	653.6
1107.64	656.8
1108.03	647.4
1108.41	643.8
1108.78	655.2
1109.16	649.6
1109.55	655.8
1109.91	644.4
1110.3	633.2
1110.69	665.2
1111.05	643.8
1111.44	645.4
1111.8	655.6
1112.19	651.6
1112.58	646.8
1112.94	644
1113.33	650.6
1113.7	639.4
1114.09	637
1114.45	639.6
1114.84	651.6
1115.21	651
1115.6	646.8
1115.96	652.6
1116.35	654.2
1116.72	646.2
1117.11	660.2
1117.48	635.6
1117.85	649.4
1118.24	670.2
1118.6	648
1118.99	644.2
1119.36	646.2
1119.73	648.8
1120.12	644.2
1120.49	638.8
1120.86	656.8
1121.25	645.4
1121.62	641.6
1121.99	636
1122.38	659.4
1122.76	654.8
1123.13	643.2
1123.5	651.6
1123.89	657.2
1124.26	640
1124.63	652.2
1125	650.6
1125.4	637.2
1125.77	643.6
1126.14	631.4
1126.51	655.4
1126.88	654.6
1127.26	648.2
1127.63	635.8
1128.02	649.6
1128.4	644.4
1128.77	643.4
1129.14	642.8
1129.52	648
1129.89	664
1130.26	642.6
1130.64	634.6
1131.01	642
