#lambda/nm	C1
208.295	540.2
208.67	496.2
209.045	456
209.419	451.6
209.794	683.4
210.169	674.8
210.544	811.8
210.919	696.2
211.295	677.8
211.67	684.4
212.045	681.8
212.421	680
212.796	726.6
213.172	689.2
213.547	684.8
213.923	690
214.299	677.2
214.675	686.4
215.051	696.8
215.427	696.4
215.803	709.6
216.179	689.6
216.555	681.4
216.932	692.8
217.308	685.6
217.684	689.6
218.061	693.8
218.438	689.8
218.814	684.8
219.191	694.2
219.568	687.6
219.945	686
220.322	692
220.699	702.4
221.076	697.8
221.453	687.4
221.83	682.6
222.208	684.2
222.585	685.8
222.962	692.4
223.34	699
223.717	687.2
224.095	686.2
224.473	689.8
224.851	677.2
225.229	671.8
225.607	702.4
225.985	679.6
226.363	691
226.741	686.8
227.119	683
227.497	705.6
227.876	663.2
228.254	695.6
228.633	689.2
229.011	685.4
229.39	695.8
229.769	687.8
230.148	699.2
230.527	709.2
230.905	687.8
231.284	695.8
231.664	676
232.043	709.4
232.422	692
232.801	686.6
233.181	694.4
233.56	685.6
233.94	685
234.319	672.2
234.699	689.8
235.079	740
235.458	741.6
235.838	703.4
236.218	679
236.598	673.2
236.978	670
237.358	685.4
237.738	683.8
238.119	697
238.499	672.6
238.88	682.8
239.26	702.8
239.641	674.4
240.021	683.4
240.402	689.8
240.783	685.6
241.163	680.2
241.544	687.2
241.925	673.4
242.306	697
242.687	680
243.069	693.2
243.45	695.6
243.831	683
244.212	686.4
244.594	723.4
244.975	692.8
245.357	684.6
245.739	682
246.12	691.4
246.502	704
246.884	684.4
247.266	679
247.648	692.6
248.03	714.4
248.412	683.6
248.794	694.4
249.176	685.8
249.559	695.8
249.941	681
250.323	677.8
250.706	672.4
251.089	695.2
251.471	685
251.854	694
252.237	682.8
252.62	688.4
253.002	688
253.385	684.2
253.769	699.8
254.152	678.4
254.535	701.2
254.918	685.2
255.301	678.4
255.685	685.4
256.068	680.4
256.452	714.8
256.835	700.2
257.219	694.4
257.603	697.8
257.986	676.8
258.37	697
258.754	679.6
259.138	696
259.522	692.8
259.906	688.6
260.29	694.6
260.675	688.8
261.059	691
261.443	672.6
261.828	697.6
262.212	700.4
262.597	679.6
262.981	676.2
263.366	700.2
263.751	689
264.136	686
264.521	690.4
264.906	681
265.291	704.4
265.676	691.6
266.061	694.4
266.446	710.8
266.831	696.2
267.217	716.2
267.602	692
267.987	686.8
268.373	692.8
268.759	695.8
269.144	698.4
269.53	685
269.916	680.2
270.302	687.6
270.688	700.8
271.074	692.8
271.46	702.2
271.846	731.2
272.232	681
272.618	681.6
273.004	686.4
273.391	703.8
273.777	699.4
274.164	699.8
274.55	705.6
274.937	694
275.324	692.2
275.71	694.8
276.097	702.4
276.484	678.2
276.871	688.8
277.258	696.4
277.645	677.8
278.032	684
278.419	681.8
278.807	701.8
279.194	686.8
279.581	684.8
279.969	695.8
280.356	688.2
280.744	695
281.131	715.6
281.519	705.8
281.907	685.4
282.295	688.2
282.682	703.6
283.07	694.8
283.458	693.6
283.846	707.6
284.235	706.4
284.623	705.2
285.011	681.2
285.399	696.6
285.788	699.8
286.176	683.2
286.565	700.8
286.953	684.2
287.342	691.2
287.731	681.8
288.119	678.8
288.508	680
288.897	694.6
289.286	690
289.675	693.6
290.064	702.8
290.453	685.6
290.821	690.8
291.21	706.6
291.599	693.2
291.989	694.8
292.378	690.8
292.768	713.8
293.157	695.4
293.547	701
293.936	686.6
294.326	688.6
294.716	698.2
295.106	674.6
295.496	695.8
295.886	702.8
296.276	685
296.666	682.6
297.056	688.4
297.446	677.2
297.836	708
298.227	685.2
298.617	688.4
299.008	696.4
299.398	689.2
299.789	679.4
300.179	698
300.57	701
300.961	693.2
301.352	676.4
301.742	701
302.133	695
302.524	689
302.915	690.2
303.307	685.8
303.698	698.2
304.089	695
304.48	692.4
304.872	699.2
305.263	689.6
305.655	685.6
306.046	694
306.438	688.4
306.829	684.6
307.221	704.4
307.613	692.4
308.005	707.8
308.397	706
308.789	717.6
309.181	720.8
309.573	717.6
309.965	694.4
310.357	689
310.749	704.2
311.142	682.4
311.534	698
311.926	697.2
312.319	692
312.711	676.8
313.104	717.2
313.497	689.8
313.889	738.6
314.282	718
314.675	721
315.068	692
315.461	702.4
315.854	734.2
316.247	706.6
316.64	685
317.033	685.4
317.405	699
317.798	691.4
318.192	701.8
318.585	698.8
318.979	699.2
319.372	682.2
319.766	688.8
320.16	701.8
320.553	712.6
320.947	722.2
321.341	688.2
321.735	688
322.129	671.8
322.523	723.2
322.917	687
323.311	711.6
323.705	697.2
324.099	697.2
324.494	711.2
324.888	702.6
325.282	700.4
325.677	704
326.071	697.2
326.466	697.8
326.861	698.2
327.255	702.2
327.65	704.8
328.045	711.4
328.44	689.6
328.835	693.4
329.23	680
329.625	719.4
330.02	685
330.415	716.4
330.81	694.8
331.206	700
331.601	685.6
331.996	693.4
332.37	715.4
332.766	680
333.161	719.6
333.557	679.2
333.953	692.6
334.348	1060
334.744	690
335.14	692.2
335.536	690.8
335.932	708.6
336.328	702.8
336.724	703.4
337.12	688.8
337.516	694.2
337.913	695.2
338.309	709.6
338.705	691.8
339.102	701
339.498	683.4
339.895	716.6
340.291	678
340.688	698.8
341.085	683.6
341.481	692.4
341.878	696.8
342.275	716.6
342.672	680.4
343.069	688
343.466	677.6
343.842	701.8
344.239	687.8
344.636	690.4
345.033	679
345.431	684.6
345.828	680.2
346.225	674.4
346.623	725.4
347.02	693.2
347.418	693.6
347.816	706
348.213	680.6
348.611	688.8
349.009	687.2
349.407	698.8
349.805	670.4
350.203	671.8
350.601	704.6
350.999	688
351.397	770
351.795	682.6
352.193	690.4
352.57	694.6
352.969	704.4
353.367	668.8
353.766	680.2
354.164	683.2
354.563	686.2
354.961	684.8
355.36	683.2
355.759	689.2
356.158	673.8
356.557	677.4
356.956	673.4
357.355	666.6
357.754	693.4
358.153	694.2
358.552	717
358.951	682.4
359.35	701
359.75	683.8
360.149	674.8
360.527	671.4
360.926	674.4
361.326	688.4
361.726	678.6
362.125	679.4
362.525	693
362.925	689.8
363.325	688.2
363.724	689.4
364.124	681.2
364.524	687.4
364.924	689.4
365.324	706.2
365.725	674.2
366.125	691.8
366.525	684.6
366.904	677.6
367.304	672.2
367.705	704.4
368.105	705.2
368.506	690.2
368.906	687.8
369.307	686
369.708	694.4
370.108	668.8
370.509	701.6
370.91	675.8
371.311	684.8
371.712	684.4
372.113	682.4
372.514	666
372.894	681.8
373.295	674.6
373.696	701.6
374.097	689.4
374.499	716.8
374.9	695.6
375.301	679.6
375.703	690.2
376.105	676.6
376.506	694.4
376.908	693.2
377.309	688.2
377.711	685.4
378.113	669.6
378.493	686.8
378.895	678.6
379.297	701.4
379.699	670
380.102	689.8
380.504	683.2
380.906	676.4
381.308	713.4
381.71	689.4
382.113	691.4
382.515	684.6
382.918	683
383.299	687.2
383.701	692.4
384.104	682.8
384.507	657.8
384.909	683.2
385.312	664
385.715	668.4
386.118	682
386.521	667
386.924	690.6
387.327	680.2
387.709	670
388.112	666.2
388.515	690.8
388.918	678.6
389.322	691.2
389.725	677.8
390.129	704
390.532	690.8
390.936	686.6
391.339	676.6
391.743	694
392.125	672.2
392.529	690.8
392.933	698.8
393.337	685
393.74	680.2
394.144	677.4
394.548	674.6
394.953	680.8
395.357	688.4
395.761	672.4
396.144	685.6
396.548	681.2
396.952	678.8
397.357	679.4
397.761	677.4
398.166	680.8
398.57	676.2
398.975	675.8
399.379	689.6
399.763	743.2
400.168	678.6
400.572	680.8
400.977	680.2
401.382	709.6
401.787	688.6
402.192	704.6
402.597	701.4
403.002	671.2
403.386	694.4
403.791	698.8
404.197	676.4
404.602	684.4
405.007	691.2
405.413	675
405.818	686.8
406.224	668.8
406.608	674.2
407.014	668.4
407.42	700.2
407.825	675.2
408.231	695.4
408.637	687.6
409.043	703.2
409.449	679.6
409.834	670.8
410.24	687.6
410.646	691.4
411.052	698.8
411.458	689.8
411.865	694.2
412.271	694.8
412.677	681.8
413.062	690.2
413.469	671.8
413.875	710.4
414.282	701.6
414.689	689.2
415.095	695.6
415.502	681
415.888	686.8
416.294	673
416.701	738.6
417.108	671.2
417.515	689.4
417.923	688.4
418.33	714.8
418.715	687.4
419.123	684.6
419.53	672.4
419.937	691.6
420.345	703
420.752	680.6
421.16	702.4
421.546	690.4
421.953	701.4
422.361	679.2
422.769	690.2
423.177	680.6
423.585	723
423.992	709.6
424.379	700.8
424.787	700.2
425.195	711.4
425.603	686.6
426.011	694.6
426.419	711.2
426.806	688.2
427.214	689.6
427.623	706
428.031	708.2
428.44	696.6
428.848	702.8
429.235	696.8
429.644	689.4
430.053	699.4
430.461	699.2
430.87	718.8
431.279	697.4
431.666	676
432.075	680.6
432.484	691.2
432.893	674.6
433.302	710
433.711	745
434.099	689.2
434.508	681.2
434.918	673.8
435.327	705.2
435.737	686.4
436.125	676.2
436.534	687.4
436.944	694.6
437.353	693.2
437.763	705
438.173	673
438.561	694.8
438.971	665.6
439.381	685.2
439.791	693.2
440.201	658.2
440.589	687.4
440.999	694
441.409	684.2
441.819	673.4
442.23	696
442.619	698.4
443.029	689.2
443.439	688.4
443.85	701.8
444.26	708.4
444.649	690.4
445.06	689.4
445.471	675.8
445.881	689
446.292	707.4
446.682	713.8
447.092	666.8
447.503	739.6
447.914	675
448.325	684.8
448.715	679.8
449.126	673.6
449.537	684.8
449.948	680.8
450.338	683.4
450.75	687.8
451.161	691.2
451.572	694.8
451.984	675.8
452.374	665.4
452.786	685.2
453.197	686.8
453.609	697.2
453.999	667
454.411	664.8
454.823	685.4
455.235	692.2
455.647	666.6
456.037	684.4
456.449	664.8
456.862	678.2
457.274	674
457.665	659.4
458.077	677.2
458.489	721.2
458.902	676.8
459.293	681.4
459.705	680.4
460.118	676.4
460.53	684
460.921	690.6
461.334	684.6
461.747	687.6
462.16	695.8
462.551	696.2
462.964	684
463.377	669.2
463.79	675
464.182	683.2
464.595	667.4
465.008	682.2
465.421	675
465.813	675.4
466.226	690.2
466.64	680
467.053	734.2
467.445	687.4
467.859	703.2
468.272	678
468.686	692.2
469.078	676.6
469.492	670
469.906	683.8
470.298	692.6
470.712	666.2
471.126	739.8
471.54	664.6
471.933	667.6
472.347	667.8
472.761	666.6
473.175	663.8
473.568	676.6
473.982	667
474.397	672
474.79	678.2
475.204	687.8
475.619	673.8
476.033	701.6
476.426	679.2
476.841	676.4
477.256	701
477.649	669
478.064	664
478.479	675.6
478.872	661
479.287	663
479.702	676.2
480.118	672.8
480.511	679
480.927	667.8
481.342	665.4
481.736	677.8
482.151	668.8
482.566	695.6
482.96	683
483.376	685.6
483.792	666
484.186	677.6
484.602	677.2
485.017	675.2
485.412	675
485.827	683.6
486.243	678.8
486.638	700.6
487.054	678.4
487.47	703.2
487.865	662.2
488.281	670.8
488.697	667.8
489.092	674
489.508	671.4
489.925	689
490.32	667.4
490.736	685.6
491.153	686.4
491.548	677.2
491.964	693.4
492.381	668.2
492.776	672.8
493.193	675.8
493.61	685.8
494.006	678.4
494.422	689
494.84	667.4
495.235	686.4
495.652	678.4
496.069	673.2
496.465	663.8
496.883	675.4
497.3	704.6
497.696	676.4
498.113	679.6
498.509	660.6
498.927	667.4
499.344	676
499.741	670.4
500.158	682
500.576	685
500.973	680.4
501.39	660.6
501.787	668.6
502.205	679.8
502.623	667
503.02	666.4
503.438	670.4
503.856	669.2
504.253	678.2
504.671	675.2
505.068	674.2
505.486	668.4
505.905	690
506.302	662
506.72	679.6
507.118	667.8
507.536	672
507.955	670.4
508.352	675.2
508.771	678
509.169	682
509.587	662.4
510.006	672.6
510.404	667.6
510.823	663.6
511.221	663.6
511.64	666.2
512.038	684.8
512.457	668.2
512.877	666.4
513.275	662.8
513.694	675.6
514.092	666.6
514.512	685.2
514.91	665.6
515.33	680.6
515.749	671.4
516.148	682.2
516.568	675.4
516.966	669.6
517.386	667.4
517.785	669.6
518.205	676
518.603	670.4
519.024	666.4
519.444	677.8
519.843	681.8
520.263	681.4
520.662	668.4
521.082	663.2
521.481	677.2
521.902	676.8
522.301	668.4
522.722	668.8
523.121	674.8
523.542	670
523.963	670.6
524.362	669.2
524.783	685.4
525.183	678.4
525.604	680.2
526.003	662.2
526.425	662.8
526.824	681.2
527.246	678.2
527.646	684.8
528.067	671
528.467	672.6
528.888	676.8
529.289	674.6
529.71	668.6
530.11	664
530.532	673.6
530.932	674.2
531.354	657.2
531.755	705.6
532.176	680
532.577	669.8
532.999	674.2
533.4	670.4
533.822	685.4
534.223	669.4
534.645	667.8
535.046	670
535.468	670.8
535.869	681.8
536.292	664
536.693	711
537.115	668.6
537.516	670.8
537.939	668
538.34	689
538.742	686.8
539.165	669.4
539.566	661.2
539.989	661.6
540.391	661.2
540.814	665.2
541.216	664.8
541.639	663.2
542.041	682.6
542.464	659.2
542.866	666.2
543.268	659.4
543.691	671.8
544.093	678
544.517	693.4
544.919	670.8
545.343	684.2
545.745	659.8
546.147	672.8
546.571	663
546.974	666
547.398	668.4
547.8	688
548.224	668.8
548.627	671.8
549.03	685.2
549.454	675.2
549.857	659.4
550.281	664.2
550.684	673.4
551.087	679
551.512	674.4
551.915	668.6
552.34	664.8
552.743	659.8
553.146	675.2
553.571	661
553.975	697.8
554.399	658.6
554.803	730.2
555.207	665.8
555.632	659.4
556.036	669.6
556.461	652.6
556.865	666
557.268	650.6
557.694	663
558.098	679
558.502	673.6
558.927	667
559.332	661.4
559.736	660.6
560.162	672.2
560.566	662
560.992	677
561.396	671.2
561.801	664
562.227	660.8
562.631	666.8
563.036	673.8
563.462	677.4
563.867	677
564.272	657.4
564.698	680.4
565.103	657.4
565.508	687
565.935	661.2
566.34	661.6
566.745	680.2
567.172	663.4
567.577	685.4
567.982	684.8
568.409	662.4
568.815	656.6
569.22	670.8
569.626	682
570.053	647
570.459	682.4
570.865	670.4
571.292	683.8
571.698	671.8
572.104	654
572.531	664
572.937	680.8
573.343	672
573.75	659.6
574.177	662.6
574.583	682.4
574.99	674.8
575.396	676
575.824	656
576.231	671.2
576.637	663
577.065	704.2
577.472	666.4
577.879	660.4
578.286	686.2
578.714	660.4
579.121	667.2
579.528	674.2
579.935	674.2
580.364	669.6
580.771	653.6
581.178	658.8
581.585	680.2
582.014	679
582.421	662.2
582.829	668.2
583.236	675.6
583.644	656.6
584.073	667.6
584.481	663.2
584.889	660.4
585.296	673.2
585.726	668.2
586.134	651.8
586.542	656.8
586.95	688.4
587.358	650
587.787	669.4
588.196	662.8
588.604	668.2
589.012	660.8
589.421	664.2
589.851	656
590.259	670
590.668	662.6
591.076	710.8
591.485	660.2
591.894	669.2
592.324	674.4
592.733	685.6
593.142	654.2
593.551	665
593.96	668.6
594.369	658.6
594.8	654.2
595.209	665
595.618	648.6
596.028	658
596.437	653
596.847	663.6
597.256	670
597.687	666
598.097	656.6
598.507	651.4
598.917	667.4
599.327	681.6
599.736	671
600.146	681.2
600.556	663.2
600.988	692.8
601.398	666.2
601.808	678.4
602.219	652.6
602.629	665.8
603.039	665.2
603.45	698
603.86	678.8
604.271	672.6
604.703	675
605.114	669
605.525	661.8
605.935	680.8
606.346	698.6
606.757	671.8
607.168	668.6
607.579	657.8
607.99	675.2
608.402	663.4
608.813	669.8
609.224	661
609.636	650
610.047	660.8
610.48	661.2
610.892	671.8
611.303	673.4
611.715	659.8
612.127	658.4
612.539	657.2
612.95	668.6
613.362	650
613.774	655.8
614.186	664.8
614.599	660.8
615.011	675.4
615.423	666.2
615.835	659.8
616.248	650
616.66	666
617.073	649.4
617.485	661.8
617.898	665.2
618.311	668.6
618.723	669
619.136	693.8
619.549	691
619.962	688.6
620.375	664.6
620.788	674.6
621.201	659.6
621.614	675.2
622.028	661.8
622.441	674.4
622.854	679.8
623.268	654.6
623.681	672
624.095	666.8
624.509	673.8
624.922	671.4
625.336	655.8
625.728	675.6
626.142	677.4
626.556	691.6
626.97	675.6
627.384	659.2
627.799	664.8
628.213	675
628.627	663.6
629.041	663.6
629.456	663
629.87	674.6
630.285	683
630.699	672.8
631.093	668
631.507	670.6
631.922	670.4
632.337	682.8
632.752	660.6
633.167	659.6
633.582	662.2
633.997	663.6
634.412	654.4
634.806	664.4
635.221	658.6
635.637	677.4
636.052	648.4
636.468	661.4
636.883	688.2
637.299	657.6
637.715	648.6
638.109	664
638.525	648.4
638.941	677.6
639.357	673.6
639.773	673.2
640.189	664.6
640.584	664.4
641	671.2
641.416	651.2
641.832	657.6
642.249	668.8
642.665	659.8
643.06	665.2
643.477	665.2
643.894	649.8
644.31	661.8
644.727	656.6
645.123	666.6
645.54	651.2
645.957	658.8
646.374	683.4
646.77	665.8
647.187	697.6
647.604	668.4
648.021	646
648.439	653.2
648.835	664
649.252	665.4
649.67	662
650.088	659.8
650.484	664
650.902	666
651.32	661.6
651.738	662.2
652.134	672.2
652.552	678.8
652.971	670.2
653.389	662.6
653.786	683.8
654.204	683.2
654.622	658
655.019	667.2
655.438	671.4
655.857	669
656.275	663
656.673	655.4
657.091	750.8
657.51	653.2
657.908	672.2
658.327	676.4
658.746	641.6
659.144	662.4
659.563	674.6
659.982	676
660.38	660.6
660.8	663
661.219	679.2
661.617	667.2
662.037	663.2
662.457	674.6
662.855	643.8
663.275	705.8
663.695	666.4
664.094	648.4
664.514	663.2
664.934	656.4
665.333	672
665.753	660.8
666.152	659
666.572	651
666.993	675
667.392	653.4
667.812	657
668.212	666.2
668.632	668.8
669.053	659.2
669.453	668.2
669.874	656.6
670.273	668.4
670.694	650.8
671.116	672.2
671.515	673.4
671.937	652.8
672.337	659
672.758	666
673.158	674
673.58	659.2
673.98	666.8
674.402	676.4
674.824	667.4
675.224	652.2
675.646	657.6
676.047	656
676.469	657
676.869	673.4
677.292	673.4
677.693	656.8
678.115	655.6
678.516	666.4
678.939	676
679.34	654.8
679.762	674.4
680.164	673.2
680.586	654
680.988	660
681.411	690
681.812	664.8
682.236	655.6
682.637	659
683.061	656.4
683.462	663.2
683.864	661
684.288	669
684.69	644.4
685.114	678
685.516	674.2
685.94	648.4
686.342	673.2
686.766	654.2
687.168	656.6
687.571	681.2
687.995	667.6
688.398	664.8
688.822	658.4
689.225	681.6
689.628	680.4
690.052	668.2
690.456	668.6
690.88	662.6
691.284	653.6
691.687	671
692.112	649
692.515	655.2
692.919	670.4
693.344	667
693.747	663.2
694.173	654.6
694.577	673.8
694.98	660.2
695.406	660.8
695.81	670.2
696.214	666
696.64	673.4
697.044	668.8
697.448	672.6
697.874	657
698.279	662.2
698.684	651.8
699.11	659.2
699.514	666
699.919	655
700.324	646
700.75	660.8
701.156	670.6
701.561	669.6
701.987	678.8
702.393	678
702.798	677
703.203	654.2
703.63	660.4
704.036	658.6
704.442	671.2
704.847	653
705.274	658.8
705.68	672.6
706.086	672
706.492	653
706.92	659.6
707.326	671.2
707.732	656
708.139	655
708.545	654.8
708.973	666.4
709.38	662
709.786	648.6
710.193	678.4
710.6	664.8
711.028	651
711.435	664
711.842	658.8
712.249	661.2
712.656	662.6
713.064	671.4
713.492	665.2
713.9	650.4
714.307	666.8
714.715	662
715.123	663.8
715.53	662.4
715.938	669.8
716.367	658
716.775	657
717.184	650.4
717.592	650.2
718	667.6
718.408	700.4
718.816	711
719.225	665.4
719.633	661.8
720.042	644.8
720.472	660.2
720.881	696.6
721.29	664.4
721.699	645
722.108	668
722.517	669.6
722.926	663.4
723.335	666.4
723.744	658.8
724.154	667.2
724.563	656.2
724.973	659.4
725.382	666
725.792	653.2
726.202	656.4
726.612	685.2
727.022	662.6
727.432	652.2
779.813	663.8
780.223	718.6
780.634	663.8
781.044	658.6
781.454	662.8
781.865	675.8
782.276	652.8
782.686	669.4
783.097	664.4
783.508	659.6
783.919	659.8
784.33	677.4
784.741	680
785.152	659.6
785.563	651.8
785.974	658.6
786.386	673
786.776	660
787.188	661.8
787.599	654.6
788.011	669.2
788.423	662
788.835	650.6
789.247	651.2
789.659	649.8
790.071	655
790.483	705.2
790.874	648.8
791.286	669.4
791.699	652.4
792.111	656.4
792.524	666.4
792.937	659.8
793.349	651.8
793.741	647.2
794.154	651.8
794.567	683.6
794.98	657.8
795.393	644.8
795.785	675.2
796.198	656
796.612	663.2
797.026	656
797.439	639.2
797.831	657.8
798.245	645.8
798.659	647.6
799.073	651.8
799.487	647.4
799.88	653.6
800.294	658.6
800.708	664.4
801.123	646.6
801.516	676.2
801.93	639.2
802.345	639
802.76	659.8
803.153	674.6
803.568	668.4
803.983	663.8
804.377	666.6
804.792	650.2
805.207	642.4
805.601	657
806.016	703.6
806.432	653.4
806.826	700.6
807.242	679.4
807.658	667.6
808.052	659.2
808.468	655.2
808.884	659.2
809.279	656
809.695	679
810.111	680.2
810.506	655.4
810.922	688.8
811.339	653
811.734	667
812.151	644.4
812.546	654.8
812.963	656.8
813.38	661.4
813.776	659.4
814.193	668.2
814.589	658.4
815.006	646.8
815.402	651.6
815.82	649.4
816.237	651.8
816.633	656.2
817.051	648.4
817.448	658.2
817.866	644
818.262	676.2
818.68	639.2
819.077	655.2
819.495	652.8
819.892	695.2
820.311	646.4
820.708	640.6
821.127	653.2
821.524	664.2
821.943	656.4
822.34	677.4
822.759	660.6
823.157	660.2
823.576	675.2
823.974	661.6
824.393	781
824.791	652
825.189	648
825.609	655.8
826.007	655.4
826.427	640.8
826.826	653.8
827.246	655.8
827.644	642.4
828.043	676.6
828.463	661.6
828.862	661.4
829.261	667.8
829.682	651.2
830.081	663.2
830.502	644.2
830.901	664.4
831.301	648
831.722	644.8
832.121	651.4
832.521	652.4
832.943	656.2
833.342	660.8
833.742	644.8
834.164	655.8
834.564	648.2
834.965	654
835.386	660.6
835.787	654.8
836.188	657
836.588	652.2
837.01	662.6
837.411	652.6
837.812	661
838.213	665.2
838.636	658.6
839.037	728.2
839.438	664
839.84	660.8
840.263	676.4
840.664	668
841.066	653.2
841.468	656.8
841.891	662.6
842.293	675
842.695	650
843.098	669.8
843.5	655.8
843.902	658
844.326	660.2
844.729	658.6
845.131	679.4
845.534	658
845.937	666.4
846.34	668.6
846.764	656.4
847.167	652.6
847.571	645.6
847.974	660.2
848.377	662.2
848.781	707.4
849.184	665.8
849.588	655.6
849.992	652.8
850.396	664.6
850.821	670.4
851.225	659.2
851.63	652
852.034	673.2
852.438	657.6
852.843	707
853.247	653
853.652	654.2
854.057	670.8
854.462	665
854.867	662.2
855.272	694
855.677	662.2
856.082	650.2
856.487	647.8
856.893	660.2
857.298	658.4
857.704	647.6
858.11	655.4
858.516	668.6
858.922	656.6
859.328	669.2
859.734	663.2
860.14	665.8
860.525	656.2
860.931	647.6
861.338	653.6
861.745	659
862.151	661.2
862.558	654.8
862.965	646.2
863.372	650.8
863.779	657.6
864.186	672.6
864.572	653.4
864.98	676.2
865.387	696.4
865.795	653.6
866.203	664.6
866.61	656
867.018	668
867.405	667.2
867.813	649
868.221	658.2
868.63	652.8
869.038	668
869.425	704.2
869.834	663.6
870.243	659.2
870.652	641.6
871.039	654.4
871.448	653.6
871.857	668.6
872.266	662.4
872.654	655.4
873.064	653
873.473	656.6
873.883	652
874.271	650.6
874.681	666.2
875.091	644
875.48	662.2
875.89	682
876.3	648
876.689	638.8
877.1	653.6
877.51	657.8
877.9	683.4
878.31	649.4
878.721	694.8
879.111	666.8
879.522	650.8
879.933	647
880.323	651.6
880.734	649
881.125	652.4
881.536	649
881.948	649.8
882.338	650.6
882.75	668.6
883.141	646.6
883.553	660.4
883.944	691.8
884.356	665.2
884.769	653.4
885.16	653.8
885.573	655.2
885.964	651
886.377	669
886.768	649.8
887.181	654.2
887.573	654.6
887.987	671.2
888.378	673.6
888.792	664.4
889.184	716
889.598	653.6
889.99	653.6
890.383	651
890.797	649.8
891.19	663
891.604	650.8
891.997	640.2
892.411	640
892.805	639
893.198	654.4
893.613	638
894.006	648.4
894.421	642.4
894.815	649.2
895.209	648.2
895.624	702.8
896.018	678
896.412	648.2
896.828	649.6
897.222	658.6
897.617	642.8
898.033	676
898.427	652.8
898.822	643.6
899.239	643.6
899.634	647.8
900.029	665.2
900.424	644
900.841	630
901.236	654.6
901.632	662
902.027	722
902.445	664.8
902.841	655
903.237	656.8
903.633	672.4
904.05	652.8
904.447	662
904.843	669
905.24	650.2
905.636	645
906.033	655
906.451	664.4
906.848	647.6
907.246	655.8
907.643	656.8
908.04	659.8
908.438	664
908.835	666.2
909.254	657.4
909.652	661.2
910.05	649.4
910.448	642.6
910.846	656
911.244	638.2
911.643	660.8
912.041	654.4
912.44	673.4
912.839	651.4
913.237	648
913.636	635.6
914.035	667.4
914.434	648.4
914.834	670.4
915.233	669
915.633	644.8
916.032	642
916.432	645.2
916.832	658.8
917.232	650.6
917.632	638.2
918.032	649.8
918.432	657.2
918.833	646
919.233	649.4
919.634	647.6
920.035	662
920.436	648.4
920.837	656.4
921.238	651.4
921.639	648
922.019	662.6
922.42	658.8
922.822	660.4
923.224	648.4
923.625	643
924.027	649.8
924.429	681.8
924.81	654.2
925.212	649.4
925.615	656.8
926.017	657.8
926.42	663.6
926.801	657.8
927.204	656.4
927.607	655.8
928.01	672
928.413	652
928.795	636.2
929.199	645.2
929.602	649
930.006	647.6
930.388	648.2
930.792	654.8
931.196	640.4
931.579	693.8
931.983	640.4
932.388	709
932.771	651.4
933.176	642.2
933.58	658.8
933.964	664.6
934.369	645.2
934.774	653.4
935.158	654.2
935.563	658.2
935.947	664.2
936.353	662.4
936.759	649.2
937.143	659.4
937.549	654
937.934	674.6
938.34	667.2
938.746	657.6
939.131	651.4
939.538	653.4
939.923	667
940.33	648.8
940.716	657.8
941.123	664
941.508	658.2
941.916	671.2
942.302	660.4
942.709	642.6
943.096	645.6
943.503	664.4
943.89	641.4
944.298	652.2
944.685	684.2
945.072	653.6
945.48	667.4
945.867	650.2
946.276	646
946.663	682.2
947.051	676.6
947.46	669.8
947.848	655.8
948.257	649.2
948.645	657.8
949.033	652.4
949.443	632.2
949.831	702
950.22	650.2
950.63	665
951.018	683.6
951.407	647.8
951.796	650
952.207	665.2
952.596	652.2
952.985	645.2
953.375	697.2
953.786	652.2
954.176	643.8
954.566	659.2
954.956	642.8
955.367	656.4
955.758	682.8
956.148	642
956.539	663.4
956.929	646.8
957.341	657
957.732	644.8
958.123	658
958.515	641.8
958.906	657.4
959.297	655
959.689	652.6
960.102	648.8
960.494	656.6
960.886	652
961.278	655.6
961.67	682
962.062	692.8
962.455	652.8
962.847	647.6
963.24	658.4
963.633	662.8
964.026	637.6
964.419	653.4
964.812	667.8
965.206	651.6
965.599	655
965.993	647.2
966.386	645.8
966.78	668.2
967.174	672
967.569	646.4
967.963	649.4
968.357	643.4
968.752	635
969.146	642.6
969.541	639.8
969.936	648.4
970.331	652.4
970.705	657.4
971.1	646.4
971.496	658.4
971.892	640.8
972.287	650.2
972.683	646.2
973.079	654.2
973.454	669.6
973.85	639.6
974.247	661
974.643	681.4
975.04	654.6
975.415	643.8
975.812	644.2
976.209	651
976.607	642.6
976.982	662.4
977.38	668.6
977.778	658.8
978.175	657.2
978.552	655
978.95	655.6
979.348	661.2
979.725	702.6
980.123	654.6
980.522	656.4
980.899	654
981.298	654.2
981.697	659.8
982.075	652.8
982.474	645.2
982.852	650
983.251	652.2
983.651	655
984.029	652.8
984.429	653.4
984.808	644.8
985.208	645.6
985.609	646.6
985.987	636.4
986.388	644.8
986.768	657.2
987.168	644.8
987.548	648
987.949	664.8
988.329	672.8
988.731	636.6
989.111	651.6
989.491	645
989.893	655
990.273	659.8
990.676	645.6
991.057	635
991.459	649
991.84	653.2
992.221	633.8
992.624	665.8
993.006	656.6
993.388	655.4
993.791	660.8
994.173	658.8
994.576	690.2
994.959	647.4
995.341	653.6
995.724	639.4
996.128	652.2
996.511	647.8
996.894	648.8
997.298	647.4
997.681	660
998.065	651.2
998.448	641.8
998.854	656.8
999.237	645
999.621	660
1000.01	665.8
1000.39	651
1000.8	647.4
1001.18	658.2
1001.56	659
1001.95	654
1002.33	652.8
1002.72	656.8
1003.13	652
1003.51	640.2
1003.9	654
1004.28	670.8
1004.67	638.6
1005.06	653.2
1005.44	688.8
1005.83	635.6
1006.21	660.2
1006.6	654.4
1006.99	663.8
1007.37	653.4
1007.76	659.4
1060.12	646.8
1060.51	646.8
1060.89	659
1061.28	657.6
1061.67	666
1062.06	657
1062.45	653.6
1062.83	645.4
1063.22	653.4
1063.61	701
1064	655.2
1064.39	654.2
1064.78	640
1065.14	660
1065.53	650.2
1065.92	647.2
1066.31	650
1066.7	650.6
1067.09	661.8
1067.46	663.8
1067.85	643.8
1068.24	639
1068.63	662
1069.02	642.2
1069.39	650.8
1069.78	642.8
1070.17	644.4
1070.57	642
1070.93	646.6
1071.33	649.2
1071.72	656
1072.11	646.2
1072.48	632.4
1072.87	641.8
1073.26	653
1073.64	647
1074.03	640.4
1074.4	644.2
1074.79	642.8
1075.19	647.4
1075.56	646
1075.95	651.2
1076.34	645
1076.72	644
1077.11	650.6
1077.48	663.6
1077.88	645.8
1078.25	646
1078.64	658
1079.02	652.6
1079.41	656.8
1079.78	653.6
1080.18	642.4
1080.55	724.6
1080.95	640.4
1081.32	640.6
1081.72	651.4
1082.09	650.6
1082.49	650.8
1082.86	648
1083.24	645.2
1083.63	635
1084.01	646.8
1084.38	659.8
1084.78	639.6
1085.16	648.8
1085.55	659.2
1085.93	666.4
1086.31	640.4
1086.7	684
1087.08	654.6
1087.46	644.6
1087.83	633
1088.23	648.6
1088.61	656
1088.99	642
1089.36	650.6
1089.76	650.2
1090.14	658.2
1090.52	649.4
1090.9	645.8
1091.27	659.2
1091.67	678.2
1092.05	662.8
1092.43	644.2
1092.81	663.4
1093.19	655.8
1093.57	646.6
1093.95	644.4
1094.35	661.8
1094.73	658
1095.11	641.2
1095.49	638.8
1095.87	647.6
1096.25	666.2
1096.63	659
1097.01	644.6
1097.39	651.2
1097.77	645
1098.15	650.6
1098.53	648.4
1098.91	649.8
1099.29	657.2
1099.68	667.4
1100.06	666.6
1100.44	653.2
1100.82	656
1101.18	656.4
1101.56	646.4
1101.95	658.8
1102.33	649.2
1102.71	650.8
1103.1	646
1103.48	635.4
1103.86	642.2
1104.22	658.2
1104.61	646.4
1104.99	644.4
1105.38	629.4
1105.76	647.6
1106.12	638.6
1106.51	689
1106.89	658.2
1107.26	653.4
1107.64	655.8
1108.03	643.2
1108.41	647.4
1108.78	652.6
1109.16	647.4
1109.55	660.8
1109.91	638.8
1110.3	629
1110.69	658
1111.05	642.6
1111.44	648.6
1111.8	644.8
1112.19	664
1112.58	650.4
1112.94	645.6
1113.33	643.6
1113.7	645.4
1114.09	639.4
1114.45	640.2
1114.84	656.2
1115.21	652.2
1115.6	644.2
1115.96	651
1116.35	651.8
1116.72	646.8
1117.11	662.8
1117.48	641.4
1117.85	648.6
1118.24	659.2
1118.6	648.2
1118.99	648.6
1119.36	652.4
1119.73	645.8
1120.12	656.2
1120.49	635.8
1120.86	663.8
1121.25	642.4
1121.62	630.4
1121.99	643
1122.38	663.2
1122.76	641
1123.13	645.2
1123.5	657.4
1123.89	659.6
1124.26	633.2
1124.63	643
1125	653.8
1125.4	633.6
1125.77	643.6
1126.14	625.6
1126.51	640
1126.88	648
1127.26	646
1127.63	629.6
1128.02	640.4
1128.4	643.2
1128.77	645.2
1129.14	641
1129.52	655.2
1129.89	650
1130.26	637.2
1130.64	637.6
1131.01	646.2
