#lambda/nm	C1
208.295	538.4
208.67	491.4
209.045	456.6
209.419	452.2
209.794	682.4
210.169	670.6
210.544	803.8
210.919	686.4
211.295	679.8
211.67	684.4
212.045	681.2
212.421	680.4
212.796	725.4
213.172	678
213.547	682.6
213.923	684.4
214.299	678
214.675	685
215.051	692.8
215.427	694.6
215.803	718.2
216.179	692.6
216.555	672.4
216.932	696.4
217.308	686.4
217.684	694.8
218.061	687.4
218.438	691.4
218.814	691.6
219.191	694
219.568	678
219.945	685.8
220.322	696.4
220.699	696
221.076	689.4
221.453	688.6
221.83	681
222.208	686.2
222.585	686
222.962	696.8
223.34	690
223.717	690.4
224.095	689.4
224.473	691
224.851	683.8
225.229	671.2
225.607	701
225.985	676.6
226.363	691
226.741	688.6
227.119	688.4
227.497	706.8
227.876	673.4
228.254	691.8
228.633	692.4
229.011	687.4
229.39	687.8
229.769	690.4
230.148	687.6
230.527	715.4
230.905	685.4
231.284	682.4
231.664	676.8
232.043	707.8
232.422	698.6
232.801	685.6
233.181	692.6
233.56	682.8
233.94	685.6
234.319	670.2
234.699	682.8
235.079	745
235.458	736.2
235.838	713
236.218	677.4
236.598	678.6
236.978	680
237.358	683.4
237.738	684.6
238.119	696.6
238.499	669
238.88	684.6
239.26	699
239.641	680.8
240.021	688.6
240.402	689.2
240.783	680
241.163	686
241.544	687
241.925	683.2
242.306	701.2
242.687	682.6
243.069	689.2
243.45	699.2
243.831	688.6
244.212	681.4
244.594	736.2
244.975	706.6
245.357	691.4
245.739	683.8
246.12	688.6
246.502	698
246.884	690
247.266	678
247.648	691
248.03	722.2
248.412	690
248.794	698.8
249.176	683.6
249.559	699.2
249.941	690
250.323	681
250.706	685.4
251.089	690.8
251.471	694.6
251.854	685.2
252.237	696.4
252.62	699.2
253.002	690.6
253.385	697.6
253.769	701.2
254.152	691.4
254.535	694.6
254.918	672.8
255.301	687.4
255.685	684.2
256.068	680.6
256.452	713.4
256.835	701.4
257.219	696.6
257.603	691.2
257.986	676.6
258.37	691.8
258.754	681
259.138	691.8
259.522	693.8
259.906	687.8
260.29	690.4
260.675	683.8
261.059	687.8
261.443	676.6
261.828	682
262.212	685
262.597	665
262.981	680.8
263.366	702.4
263.751	683.8
264.136	688
264.521	684.4
264.906	678
265.291	698.4
265.676	673
266.061	692
266.446	696.4
266.831	687.2
267.217	706.8
267.602	694.2
267.987	693.6
268.373	675
268.759	692.8
269.144	699.4
269.53	682.2
269.916	681.6
270.302	687.8
270.688	687.4
271.074	695.4
271.46	704.2
271.846	728.8
272.232	682.4
272.618	674.4
273.004	681.8
273.391	700.2
273.777	709.6
274.164	684.4
274.55	697.6
274.937	692.2
275.324	679.8
275.71	693.6
276.097	698
276.484	671.2
276.871	689.4
277.258	685
277.645	677
278.032	685.4
278.419	688
278.807	695
279.194	681
279.581	679.6
279.969	685.6
280.356	688.2
280.744	691.8
281.131	722
281.519	704.6
281.907	682
282.295	688.4
282.682	700
283.07	693.8
283.458	697.6
283.846	690.8
284.235	697.6
284.623	700.6
285.011	683.6
285.399	684.4
285.788	683.8
286.176	674.2
286.565	694.2
286.953	679.8
287.342	679.6
287.731	686.2
288.119	683
288.508	676.6
288.897	689.4
289.286	668.6
289.675	685.8
290.064	697.2
290.453	682.4
290.821	684.2
291.21	708.4
291.599	684.2
291.989	686.8
292.378	698.8
292.768	711.2
293.157	689.6
293.547	697
293.936	676.4
294.326	681.8
294.716	696.2
295.106	683.6
295.496	698.6
295.886	702.8
296.276	683.2
296.666	679.4
297.056	681.8
297.446	680.4
297.836	710.4
298.227	688.6
298.617	695.8
299.008	714.8
299.398	693.4
299.789	689.8
300.179	694.8
300.57	708.6
300.961	679
301.352	697.2
301.742	706.6
302.133	692.4
302.524	690.2
302.915	696.8
303.307	688.4
303.698	697.8
304.089	697.6
304.48	688.2
304.872	688.8
305.263	693.8
305.655	687.2
306.046	702.2
306.438	693.4
306.829	684.4
307.221	707.6
307.613	699.4
308.005	701.4
308.397	704.2
308.789	716.2
309.181	719.4
309.573	709
309.965	706.4
310.357	684.6
310.749	708.6
311.142	681.6
311.534	687.6
311.926	701.6
312.319	696.2
312.711	677.4
313.104	710.2
313.497	690.6
313.889	743.2
314.282	717.2
314.675	710.6
315.068	694.2
315.461	699.4
315.854	725.4
316.247	700.8
316.64	695.2
317.033	695.4
317.405	702.6
317.798	692.4
318.192	697
318.585	687
318.979	689.4
319.372	689
319.766	691.8
320.16	696
320.553	712.2
320.947	722
321.341	686.6
321.735	696.4
322.129	664.8
322.523	711
322.917	680.2
323.311	715
323.705	698.6
324.099	697.6
324.494	711.6
324.888	703.2
325.282	690.8
325.677	706
326.071	699.6
326.466	702.8
326.861	701.8
327.255	709.2
327.65	709.2
328.045	706.8
328.44	700
328.835	697.6
329.23	680.4
329.625	719.6
330.02	675.8
330.415	724.6
330.81	691.4
331.206	698.2
331.601	687
331.996	705.6
332.37	722
332.766	678.6
333.161	723.8
333.557	690.4
333.953	693.6
334.348	1079.2
334.744	693.2
335.14	695.8
335.536	691.2
335.932	710.8
336.328	700.2
336.724	702
337.12	692.4
337.516	700.8
337.913	695.4
338.309	709
338.705	696.4
339.102	700.4
339.498	694
339.895	710.8
340.291	694.6
340.688	698.8
341.085	689.2
341.481	692.8
341.878	693
342.275	713.4
342.672	687.2
343.069	681.6
343.466	675.4
343.842	702.4
344.239	680
344.636	693
345.033	682.2
345.431	677.4
345.828	683.8
346.225	689.4
346.623	727
347.02	684.4
347.418	699
347.816	703.6
348.213	679.6
348.611	696.8
349.009	691.6
349.407	713
349.805	676.8
350.203	678
350.601	701
350.999	684.4
351.397	753.8
351.795	685.8
352.193	705.6
352.57	699.8
352.969	711.6
353.367	682.8
353.766	682.2
354.164	680
354.563	699.8
354.961	698.4
355.36	683.6
355.759	687.8
356.158	675.6
356.557	679.8
356.956	675.2
357.355	678.4
357.754	692.4
358.153	697.2
358.552	720
358.951	684.4
359.35	704.8
359.75	678
360.149	682.2
360.527	671
360.926	681.2
361.326	680.6
361.726	683.2
362.125	677.4
362.525	691.4
362.925	688
363.325	691.6
363.724	685.6
364.124	667.6
364.524	670.6
364.924	672.8
365.324	696.8
365.725	668
366.125	683.6
366.525	686
366.904	671.8
367.304	663.8
367.705	700.2
368.105	693.8
368.506	681
368.906	678
369.307	676.8
369.708	677
370.108	665.8
370.509	696.2
370.91	681
371.311	686.8
371.712	686.4
372.113	680.4
372.514	670.6
372.894	683.8
373.295	679.4
373.696	695
374.097	695.6
374.499	726.4
374.9	688.6
375.301	683.6
375.703	689.6
376.105	674.8
376.506	690.6
376.908	680.2
377.309	685.6
377.711	682
378.113	676
378.493	680.6
378.895	674.6
379.297	686.8
379.699	669.8
380.102	681
380.504	679.8
380.906	674
381.308	704.4
381.71	684.2
382.113	686.6
382.515	673.4
382.918	687
383.299	681.8
383.701	691.2
384.104	682
384.507	675.2
384.909	688.2
385.312	671.6
385.715	671.4
386.118	678.2
386.521	667.8
386.924	693
387.327	676
387.709	669.6
388.112	662
388.515	682.2
388.918	682.8
389.322	687.4
389.725	676.2
390.129	704.2
390.532	681
390.936	679
391.339	663.2
391.743	687.8
392.125	672.4
392.529	689
392.933	693.8
393.337	683.4
393.74	685.8
394.144	684.8
394.548	668.4
394.953	681.2
395.357	685
395.761	680.2
396.144	684.8
396.548	680.2
396.952	678.6
397.357	685.6
397.761	671.6
398.166	680
398.57	684.6
398.975	675.2
399.379	690.2
399.763	746
400.168	684.4
400.572	683.8
400.977	690.2
401.382	706.6
401.787	694.2
402.192	704.6
402.597	701.4
403.002	672.8
403.386	696.6
403.791	696.6
404.197	672.2
404.602	677.8
405.007	683.8
405.413	683.2
405.818	680.8
406.224	677
406.608	681
407.014	672.8
407.42	699
407.825	677.2
408.231	698.8
408.637	680.4
409.043	707.2
409.449	670.2
409.834	677.2
410.24	682
410.646	700.2
411.052	691.8
411.458	681.6
411.865	687.2
412.271	696.2
412.677	676.8
413.062	690.4
413.469	676.2
413.875	707.8
414.282	697.8
414.689	679.2
415.095	684.6
415.502	678
415.888	681.8
416.294	669.2
416.701	732
417.108	677.8
417.515	698.4
417.923	676.6
418.33	708
418.715	693.6
419.123	686
419.53	670.2
419.937	680.6
420.345	708.8
420.752	687.8
421.16	697.2
421.546	682.6
421.953	695
422.361	668.2
422.769	678.2
423.177	685.4
423.585	711.8
423.992	703
424.379	701.6
424.787	693.6
425.195	716.4
425.603	680.2
426.011	709
426.419	700.4
426.806	681.4
427.214	691.2
427.623	698.2
428.031	710.8
428.44	693.6
428.848	694.2
429.235	709
429.644	700.8
430.053	703.4
430.461	717.4
430.87	734
431.279	709.8
431.666	699.4
432.075	711.4
432.484	719.8
432.893	710.4
433.302	736.4
433.711	781.6
434.099	727.4
434.508	717.2
434.918	725.8
435.327	753.8
435.737	739.4
436.125	749.6
436.534	750.6
436.944	754.2
437.353	771.2
437.763	786.4
438.173	749
438.561	787.2
438.971	758.8
439.381	782.8
439.791	784.2
440.201	768.6
440.589	794.2
440.999	799.2
441.409	801.4
441.819	785
442.23	813.4
442.619	811.6
443.029	810.2
443.439	814.8
443.85	826.4
444.26	845
444.649	827
445.06	824
445.471	820.6
445.881	826.8
446.292	848.6
446.682	858.6
447.092	819.2
447.503	899.6
447.914	834.4
448.325	845.4
448.715	834.2
449.126	835.6
449.537	836.4
449.948	842.6
450.338	830.8
450.75	860.2
451.161	844.8
451.572	854.6
451.984	843.6
452.374	835
452.786	848.8
453.197	857.2
453.609	852
453.999	827.8
454.411	842.8
454.823	856.8
455.235	862.4
455.647	856.6
456.037	863.6
456.449	832.6
456.862	845.6
457.274	856.6
457.665	839.8
458.077	857.4
458.489	890.6
458.902	856
459.293	853.4
459.705	855.8
460.118	847.4
460.53	862
460.921	857.8
461.334	852.2
461.747	856.2
462.16	874.2
462.551	866.8
462.964	861.4
463.377	835.2
463.79	851.2
464.182	865
464.595	839.2
465.008	866
465.421	880.2
465.813	861.8
466.226	867
466.64	851.8
467.053	914
467.445	860.4
467.859	879.2
468.272	871.8
468.686	867.8
469.078	856
469.492	842.2
469.906	857.4
470.298	849.6
470.712	849.6
471.126	920.2
471.54	844.4
471.933	848.4
472.347	854.8
472.761	852.6
473.175	851.6
473.568	846.2
473.982	842.8
474.397	858.4
474.79	854.8
475.204	865.2
475.619	847.8
476.033	850.6
476.426	850
476.841	841.4
477.256	874.2
477.649	845
478.064	843.2
478.479	835.2
478.872	840.4
479.287	823
479.702	829.4
480.118	841.6
480.511	842
480.927	850.6
481.342	844.8
481.736	840
482.151	831.6
482.566	850.6
482.96	845.6
483.376	837.8
483.792	815.8
484.186	835.4
484.602	845.8
485.017	830.2
485.412	838.2
485.827	833
486.243	835.4
486.638	863.6
487.054	833.2
487.47	851
487.865	830
488.281	819.4
488.697	827
489.092	827
489.508	813.6
489.925	839.6
490.32	813.4
490.736	833.2
491.153	824
491.548	819
491.964	827.4
492.381	800
492.776	818
493.193	809.6
493.61	822
494.006	813.8
494.422	823
494.84	794.8
495.235	818.8
495.652	809
496.069	808.2
496.465	799.4
496.883	811.6
497.3	832.2
497.696	809
498.113	825.6
498.509	785.4
498.927	797
499.344	796.6
499.741	790.6
500.158	800
500.576	817
500.973	799.2
501.39	784.6
501.787	785.4
502.205	796
502.623	799.8
503.02	769
503.438	774.2
503.856	786
504.253	780
504.671	800.2
505.068	786.4
505.486	792.8
505.905	801.8
506.302	784.8
506.72	797.2
507.118	765.8
507.536	782.4
507.955	775.2
508.352	780
508.771	784.2
509.169	786
509.587	767.2
510.006	781.4
510.404	754.8
510.823	764.4
511.221	766.8
511.64	764.8
512.038	796
512.457	763.4
512.877	767
513.275	751.4
513.694	756.8
514.092	772
514.512	766.8
514.91	757.8
515.33	761.8
515.749	761.6
516.148	769.6
516.568	757
516.966	757.4
517.386	759.8
517.785	750.4
518.205	750.2
518.603	750
519.024	747
519.444	746.4
519.843	765.4
520.263	759
520.662	756.4
521.082	747.6
521.481	745.8
521.902	743.8
522.301	748.6
522.722	753.2
523.121	745
523.542	753.4
523.963	741.8
524.362	755
524.783	749.4
525.183	737.2
525.604	751.4
526.003	736.8
526.425	735.6
526.824	749.8
527.246	737
527.646	741
528.067	741.2
528.467	728.8
528.888	742.8
529.289	730.2
529.71	724.8
530.11	722.8
530.532	728
530.932	729
531.354	722
531.755	776.6
532.176	731.4
532.577	724.4
532.999	729.4
533.4	723.4
533.822	734
534.223	724.8
534.645	723.6
535.046	728.2
535.468	729
535.869	738
536.292	718.4
536.693	769.2
537.115	717
537.516	716.2
537.939	721.6
538.34	743.6
538.742	735.8
539.165	723.2
539.566	722
539.989	697.2
540.391	709.6
540.814	718.4
541.216	726.4
541.639	726.2
542.041	731.2
542.464	706
542.866	707.8
543.268	694.6
543.691	714
544.093	726.2
544.517	741.2
544.919	697.2
545.343	739
545.745	710.4
546.147	716.4
546.571	714
546.974	701.2
547.398	717.2
547.8	727.2
548.224	708
548.627	693
549.03	707
549.454	702
549.857	693.2
550.281	714.2
550.684	706.2
551.087	717.8
551.512	708.4
551.915	717.4
552.34	704.8
552.743	698.6
553.146	700.4
553.571	703.8
553.975	723
554.399	694.6
554.803	758.2
555.207	694
555.632	695.8
556.036	716.2
556.461	691.2
556.865	701.2
557.268	700.8
557.694	696.4
558.098	706.6
558.502	704
558.927	697.6
559.332	697
559.736	700.8
560.162	698
560.566	692.6
560.992	710.8
561.396	703.6
561.801	698.6
562.227	696
562.631	698.2
563.036	697
563.462	705.2
563.867	692.6
564.272	685.6
564.698	698
565.103	676
565.508	713.4
565.935	691.4
566.34	688.4
566.745	704.6
567.172	691.6
567.577	725
567.982	708.8
568.409	706.8
568.815	677.2
569.22	694.4
569.626	702.6
570.053	679
570.459	692
570.865	703
571.292	690.8
571.698	692
572.104	670
572.531	683.8
572.937	695.6
573.343	674.8
573.75	681
574.177	684.2
574.583	695
574.99	677.6
575.396	684
575.824	679.8
576.231	686.2
576.637	682.6
577.065	719.6
577.472	688.2
577.879	679.6
578.286	694.4
578.714	676.8
579.121	686.8
579.528	690.6
579.935	694.2
580.364	689.2
580.771	668
581.178	674.6
581.585	686.8
582.014	693.2
582.421	680.2
582.829	673.8
583.236	691.8
583.644	673.8
584.073	680.4
584.481	681.6
584.889	675.6
585.296	685.4
585.726	681.8
586.134	669.6
586.542	674.2
586.95	702.8
587.358	661.6
587.787	669.8
588.196	669.4
588.604	671.8
589.012	675
589.421	671.4
589.851	673.2
590.259	685.4
590.668	679
591.076	725.8
591.485	668.2
591.894	677.8
592.324	689.2
592.733	697.8
593.142	668.2
593.551	677.4
593.96	690.2
594.369	657.2
594.8	668.2
595.209	666.2
595.618	657.8
596.028	669.8
596.437	664.2
596.847	668.8
597.256	665.6
597.687	671.2
598.097	678.6
598.507	666.2
598.917	671.2
599.327	683.4
599.736	678.8
600.146	687.4
600.556	670.6
600.988	684.2
601.398	662.8
601.808	679
602.219	670.4
602.629	670.8
603.039	678
603.45	704.4
603.86	672
604.271	696.4
604.703	677.8
605.114	676.6
605.525	683.4
605.935	675.8
606.346	699
606.757	686
607.168	673.6
607.579	662.2
607.99	682.6
608.402	676.6
608.813	681.2
609.224	658.8
609.636	658.6
610.047	662.4
610.48	677
610.892	676.8
611.303	689.6
611.715	674.8
612.127	656.4
612.539	662.4
612.95	674.6
613.362	659.4
613.774	657.6
614.186	665.2
614.599	669.2
615.011	677.6
615.423	669.2
615.835	660.4
616.248	662.2
616.66	674.4
617.073	658.8
617.485	658.8
617.898	675.2
618.311	672.4
618.723	671.4
619.136	692.2
619.549	688.4
619.962	700.2
620.375	659.6
620.788	673.6
621.201	670
621.614	675.8
622.028	661
622.441	680.4
622.854	687
623.268	659
623.681	680.4
624.095	676.2
624.509	679.6
624.922	670.8
625.336	662.8
625.728	671.2
626.142	683.6
626.556	695.4
626.97	672.6
627.384	659
627.799	667.4
628.213	672
628.627	669.4
629.041	666.8
629.456	670.6
629.87	675.4
630.285	678.6
630.699	675.4
631.093	663.4
631.507	676.2
631.922	667.4
632.337	676.6
632.752	659
633.167	672.2
633.582	655.4
633.997	660.8
634.412	663.2
634.806	667.6
635.221	656.6
635.637	673.6
636.052	657.8
636.468	665.6
636.883	688
637.299	667.4
637.715	652.6
638.109	662.8
638.525	659
638.941	682
639.357	672.6
639.773	681
640.189	658.4
640.584	666.8
641	671.8
641.416	651.2
641.832	666.6
642.249	664
642.665	666.4
643.06	677.4
643.477	679.6
643.894	658
644.31	665.2
644.727	664.4
645.123	666.6
645.54	663
645.957	672
646.374	685.2
646.77	668.8
647.187	702
647.604	665.4
648.021	661.2
648.439	662
648.835	661.8
649.252	662.4
649.67	671.6
650.088	667.2
650.484	667.4
650.902	676.2
651.32	672.2
651.738	666.4
652.134	671.6
652.552	687.2
652.971	675.6
653.389	667.4
653.786	686
654.204	693.8
654.622	653.8
655.019	656.4
655.438	662.6
655.857	667.2
656.275	667.6
656.673	651.8
657.091	746.8
657.51	668
657.908	669.8
658.327	681.6
658.746	645.6
659.144	673
659.563	681.2
659.982	671.2
660.38	665.2
660.8	673.2
661.219	676.4
661.617	670.2
662.037	671
662.457	680.4
662.855	653
663.275	709.6
663.695	672.4
664.094	661.2
664.514	669.4
664.934	661.2
665.333	675
665.753	656.8
666.152	660
666.572	652.8
666.993	680.8
667.392	662
667.812	663.4
668.212	663.6
668.632	684.4
669.053	666.6
669.453	675.4
669.874	675.6
670.273	677.2
670.694	660.4
671.116	682.2
671.515	673.6
671.937	662
672.337	662.4
672.758	662.8
673.158	677.6
673.58	654.8
673.98	668
674.402	671.2
674.824	660.8
675.224	657
675.646	654.2
676.047	651.2
676.469	655.6
676.869	666.6
677.292	657.8
677.693	652.6
678.115	658.6
678.516	665.8
678.939	653
679.34	645.6
679.762	672
680.164	667.4
680.586	656.8
680.988	667
681.411	693
681.812	651.8
682.236	653.4
682.637	655.8
683.061	648.8
683.462	663.6
683.864	658.2
684.288	669.6
684.69	658
685.114	679
685.516	665.4
685.94	659.8
686.342	668.6
686.766	668
687.168	666.6
687.571	674
687.995	657.4
688.398	647.8
688.822	661.2
689.225	677.4
689.628	686.4
690.052	657.4
690.456	667
690.88	663.6
691.284	657.4
691.687	670.2
692.112	651.2
692.515	651.4
692.919	658
693.344	666.6
693.747	657.8
694.173	656
694.577	678
694.98	666.4
695.406	658.8
695.81	669.6
696.214	668.2
696.64	669
697.044	662.6
697.448	671
697.874	664.6
698.279	655.6
698.684	656.2
699.11	656.6
699.514	655
699.919	659.4
700.324	660.6
700.75	649
701.156	655
701.561	663.4
701.987	660.6
702.393	667.6
702.798	668.8
703.203	664.6
703.63	655.4
704.036	658
704.442	663
704.847	648.8
705.274	660.6
705.68	672
706.086	668.2
706.492	647
706.92	653.6
707.326	671.4
707.732	657.6
708.139	662.8
708.545	656
708.973	658.6
709.38	655.6
709.786	644.2
710.193	680.6
710.6	667.6
711.028	653
711.435	669
711.842	661.4
712.249	655.4
712.656	656.8
713.064	683.8
713.492	656.8
713.9	660
714.307	673.6
714.715	659.4
715.123	666.6
715.53	657
715.938	664.6
716.367	665.2
716.775	660.2
717.184	658
717.592	661.8
718	678
718.408	697
718.816	707.2
719.225	667
719.633	663.8
720.042	646.4
720.472	652.2
720.881	673.6
721.29	663.6
721.699	651
722.108	661.8
722.517	664.8
722.926	659.2
723.335	679.6
723.744	663.4
724.154	667
724.563	670.2
724.973	666.6
725.382	668.6
725.792	657.2
726.202	660.2
726.612	678.4
727.022	655
727.432	659.2
779.813	655.4
780.223	708.6
780.634	658.8
781.044	649.8
781.454	659.6
781.865	673.2
782.276	644.8
782.686	674.6
783.097	658
783.508	659.6
783.919	656.4
784.33	676.8
784.741	668.8
785.152	644.2
785.563	641.8
785.974	648.6
786.386	669
786.776	654.4
787.188	660.8
787.599	647.6
788.011	667.2
788.423	659
788.835	662
789.247	643.4
789.659	647.6
790.071	651.2
790.483	698.8
790.874	658.2
791.286	658.8
791.699	654.4
792.111	656.2
792.524	659.2
792.937	655.4
793.349	650.2
793.741	655.4
794.154	658
794.567	677.6
794.98	659
795.393	653.6
795.785	680.4
796.198	654.2
796.612	662.6
797.026	655
797.439	640.6
797.831	654.6
798.245	649
798.659	652.2
799.073	654.8
799.487	645.8
799.88	660.2
800.294	653.4
800.708	665
801.123	665.6
801.516	680.8
801.93	654.4
802.345	643
802.76	656.8
803.153	667.8
803.568	678.6
803.983	679.6
804.377	655.6
804.792	642.2
805.207	639.8
805.601	671.2
806.016	700.6
806.432	656.8
806.826	699.2
807.242	687.8
807.658	666.6
808.052	653.2
808.468	649.2
808.884	651.6
809.279	655.6
809.695	678.4
810.111	676.6
810.506	664.6
810.922	689.2
811.339	657.8
811.734	670.8
812.151	653.8
812.546	655.2
812.963	653.4
813.38	664.6
813.776	664.2
814.193	689.2
814.589	648.8
815.006	656.8
815.402	642.4
815.82	647.8
816.237	659
816.633	661
817.051	649.8
817.448	663.2
817.866	647.6
818.262	681
818.68	652.4
819.077	652.2
819.495	661.2
819.892	701.6
820.311	650.6
820.708	658.2
821.127	653.4
821.524	676
821.943	665.2
822.34	672.8
822.759	661.4
823.157	668.2
823.576	666.6
823.974	670.2
824.393	741.4
824.791	657.6
825.189	652
825.609	648.8
826.007	654.6
826.427	653.8
826.826	658.8
827.246	660.4
827.644	636.6
828.043	665.8
828.463	664
828.862	672.8
829.261	661.6
829.682	638.4
830.081	661
830.502	653.8
830.901	655.6
831.301	643.2
831.722	645
832.121	653.4
832.521	644.4
832.943	646.8
833.342	658.2
833.742	645.4
834.164	654.4
834.564	644.4
834.965	654.8
835.386	666
835.787	661.8
836.188	653.8
836.588	649
837.01	653.8
837.411	647.8
837.812	661.6
838.213	660.6
838.636	650.8
839.037	739.2
839.438	663.4
839.84	667
840.263	662.6
840.664	670.8
841.066	656.6
841.468	666
841.891	650.2
842.293	675
842.695	668.6
843.098	671.4
843.5	657
843.902	660
844.326	660.6
844.729	663.8
845.131	665.8
845.534	646.8
845.937	670
846.34	676.6
846.764	647
847.167	657.2
847.571	643.6
847.974	644.8
848.377	649.8
848.781	703.8
849.184	658.8
849.588	657.6
849.992	652
850.396	660.6
850.821	677
851.225	658
851.63	656.6
852.034	673.2
852.438	650
852.843	704.8
853.247	655.2
853.652	645.8
854.057	674.2
854.462	651.8
854.867	656.4
855.272	681.8
855.677	667.6
856.082	648.6
856.487	648
856.893	658.8
857.298	654.4
857.704	655.4
858.11	659.4
858.516	654.2
858.922	651.6
859.328	667.6
859.734	657.6
860.14	661.4
860.525	662.6
860.931	641.8
861.338	648.4
861.745	659
862.151	672
862.558	655
862.965	649.2
863.372	642.6
863.779	657.8
864.186	677
864.572	657.2
864.98	672.8
865.387	692.2
865.795	653.2
866.203	668.8
866.61	652
867.018	668.4
867.405	675.4
867.813	655
868.221	652.2
868.63	650.6
869.038	669
869.425	698.8
869.834	670
870.243	656.8
870.652	646.4
871.039	645.8
871.448	652.6
871.857	672.2
872.266	656.8
872.654	655.4
873.064	650.2
873.473	662
873.883	647.6
874.271	645.8
874.681	664
875.091	634.4
875.48	667
875.89	678.8
876.3	649.2
876.689	627.2
877.1	656.2
877.51	658.4
877.9	676.2
878.31	651.6
878.721	694.6
879.111	662.2
879.522	661.6
879.933	644.6
880.323	635.8
880.734	641.6
881.125	658.8
881.536	653.6
881.948	642.6
882.338	648
882.75	663.6
883.141	651.4
883.553	654
883.944	686.8
884.356	667.8
884.769	654.2
885.16	658
885.573	659.6
885.964	646.2
886.377	657.8
886.768	650.2
887.181	654.4
887.573	642.4
887.987	658.6
888.378	675.8
888.792	658.6
889.184	710.8
889.598	649.4
889.99	650.4
890.383	650.8
890.797	643.6
891.19	662.6
891.604	654.8
891.997	641.6
892.411	644.4
892.805	652.6
893.198	651.8
893.613	634
894.006	655.2
894.421	655.6
894.815	645
895.209	643.4
895.624	701.2
896.018	671.2
896.412	648.8
896.828	656.2
897.222	662.8
897.617	653.6
898.033	674.4
898.427	655
898.822	661
899.239	649.4
899.634	647
900.029	672.4
900.424	654
900.841	641.8
901.236	665.4
901.632	661
902.027	727
902.445	660.6
902.841	654.4
903.237	661.2
903.633	668.8
904.05	672.4
904.447	658.6
904.843	672.2
905.24	657
905.636	642.6
906.033	657.8
906.451	665.2
906.848	647.8
907.246	648.8
907.643	647
908.04	658.8
908.438	664.4
908.835	662.8
909.254	661.8
909.652	667.4
910.05	655.4
910.448	646.4
910.846	660.4
911.244	651.2
911.643	656.4
912.041	658
912.44	671.4
912.839	652.2
913.237	653.8
913.636	648.8
914.035	661
914.434	652
914.834	679.4
915.233	660
915.633	649.4
916.032	655.6
916.432	656.8
916.832	665.6
917.232	647
917.632	645.4
918.032	661.2
918.432	645.6
918.833	645.2
919.233	649
919.634	644
920.035	662.2
920.436	643
920.837	657.4
921.238	649.8
921.639	644.4
922.019	653.2
922.42	661.8
922.822	656.6
923.224	655.6
923.625	653.4
924.027	652.8
924.429	677.8
924.81	661
925.212	653.6
925.615	655.4
926.017	660.8
926.42	669
926.801	655.6
927.204	658.4
927.607	679
928.01	668.8
928.413	663
928.795	638.4
929.199	649.8
929.602	644.4
930.006	640.6
930.388	649.4
930.792	642.8
931.196	648.8
931.579	690.6
931.983	638.6
932.388	701.6
932.771	647.2
933.176	637
933.58	653.2
933.964	656.8
934.369	637.2
934.774	647
935.158	647.4
935.563	656
935.947	650.4
936.353	657
936.759	649.4
937.143	659
937.549	653.2
937.934	658.6
938.34	666
938.746	645.8
939.131	648.6
939.538	644
939.923	652.6
940.33	646.8
940.716	647.6
941.123	655.2
941.508	671.4
941.916	669.4
942.302	665.6
942.709	631.2
943.096	650.6
943.503	659
943.89	657.6
944.298	639
944.685	682.8
945.072	638.8
945.48	662.4
945.867	647
946.276	647.6
946.663	685.2
947.051	682
947.46	664.2
947.848	648.8
948.257	645.8
948.645	649.6
949.033	650.4
949.443	640.8
949.831	703.8
950.22	645
950.63	663.6
951.018	685.8
951.407	645
951.796	642.2
952.207	661.4
952.596	651.4
952.985	643.2
953.375	709
953.786	652.2
954.176	643.6
954.566	657.4
954.956	638.4
955.367	642.6
955.758	672.8
956.148	644.4
956.539	660.6
956.929	644.4
957.341	637.2
957.732	647.6
958.123	660.4
958.515	633.2
958.906	657.2
959.297	644.4
959.689	648.8
960.102	637.6
960.494	655.4
960.886	649.2
961.278	651
961.67	674.6
962.062	691.4
962.455	645.8
962.847	643.4
963.24	652.6
963.633	638.4
964.026	641.6
964.419	655.4
964.812	666
965.206	651
965.599	659.4
965.993	666.6
966.386	653.6
966.78	664.6
967.174	664.8
967.569	650.8
967.963	646
968.357	643.6
968.752	642.8
969.146	650.6
969.541	646
969.936	650.6
970.331	645.2
970.705	652.4
971.1	651.6
971.496	660
971.892	648.8
972.287	652.8
972.683	644
973.079	655.4
973.454	657.4
973.85	648.6
974.247	659.2
974.643	683
975.04	653.6
975.415	653.8
975.812	637.8
976.209	657
976.607	630.2
976.982	656.4
977.38	664.6
977.778	655.2
978.175	653.6
978.552	656
978.95	652.6
979.348	666.8
979.725	702
980.123	651.6
980.522	655.2
980.899	644
981.298	642.2
981.697	652.8
982.075	649.6
982.474	637.4
982.852	664.6
983.251	656.4
983.651	648.8
984.029	664.6
984.429	652.2
984.808	635.4
985.208	648.8
985.609	645.8
985.987	638.4
986.388	650.8
986.768	653.4
987.168	652
987.548	655.6
987.949	663
988.329	650
988.731	632.2
989.111	655.2
989.491	645.8
989.893	652.6
990.273	661.6
990.676	639.4
991.057	638
991.459	644
991.84	642.8
992.221	636
992.624	676.4
993.006	660
993.388	656.2
993.791	663.2
994.173	658.2
994.576	693
994.959	643.4
995.341	645
995.724	647
996.128	644.8
996.511	640.6
996.894	646.8
997.298	650.2
997.681	660
998.065	651.8
998.448	647.8
998.854	656.4
999.237	650.4
999.621	669.6
1000.01	671.8
1000.39	657
1000.8	641.8
1001.18	661
1001.56	650
1001.95	657.8
1002.33	652.6
1002.72	640.8
1003.13	649.4
1003.51	651.6
1003.9	645
1004.28	673.2
1004.67	644
1005.06	644.4
1005.44	685.4
1005.83	647.2
1006.21	647.8
1006.6	645
1006.99	663.4
1007.37	649.8
1007.76	653
1060.12	646.2
1060.51	643.6
1060.89	660.6
1061.28	658.4
1061.67	669.4
1062.06	663.4
1062.45	651.8
1062.83	638.6
1063.22	652.6
1063.61	695.4
1064	660
1064.39	659.4
1064.78	649.8
1065.14	663.6
1065.53	648.6
1065.92	640
1066.31	649.4
1066.7	669
1067.09	672.8
1067.46	661
1067.85	653.6
1068.24	646.8
1068.63	658.2
1069.02	647.2
1069.39	650.2
1069.78	646.8
1070.17	644.8
1070.57	641.6
1070.93	650.8
1071.33	644.8
1071.72	651.2
1072.11	646.2
1072.48	647.6
1072.87	653.6
1073.26	649.2
1073.64	652.2
1074.03	635.4
1074.4	646.8
1074.79	644.2
1075.19	655.6
1075.56	652.8
1075.95	647.6
1076.34	648.2
1076.72	657.6
1077.11	658
1077.48	662.2
1077.88	657.2
1078.25	654
1078.64	655.4
1079.02	648.2
1079.41	656.6
1079.78	646.4
1080.18	642.6
1080.55	725
1080.95	638
1081.32	631.8
1081.72	649.8
1082.09	650
1082.49	634.4
1082.86	637.6
1083.24	629
1083.63	636.6
1084.01	643.8
1084.38	653.4
1084.78	635
1085.16	645.6
1085.55	657.8
1085.93	665.6
1086.31	637.8
1086.7	688.4
1087.08	645
1087.46	651
1087.83	635.2
1088.23	658
1088.61	653
1088.99	646
1089.36	642.4
1089.76	644.2
1090.14	656
1090.52	641.8
1090.9	641.4
1091.27	646.4
1091.67	676.4
1092.05	657.2
1092.43	640.4
1092.81	653.4
1093.19	661.6
1093.57	646.8
1093.95	642.2
1094.35	665.6
1094.73	661.4
1095.11	646.2
1095.49	637.8
1095.87	645.4
1096.25	659.4
1096.63	664.2
1097.01	647.2
1097.39	646
1097.77	637.4
1098.15	641.4
1098.53	642.6
1098.91	643.8
1099.29	648
1099.68	670.2
1100.06	662
1100.44	656.4
1100.82	645.2
1101.18	655.6
1101.56	647.4
1101.95	653.8
1102.33	650.6
1102.71	658.8
1103.1	644.4
1103.48	635.8
1103.86	633.4
1104.22	657
1104.61	642.4
1104.99	633.4
1105.38	641
1105.76	646.6
1106.12	644
1106.51	685.2
1106.89	656
1107.26	646.4
1107.64	649
1108.03	638.2
1108.41	648.8
1108.78	649.8
1109.16	645.6
1109.55	651.4
1109.91	633.6
1110.3	632.6
1110.69	660.6
1111.05	643
1111.44	656.2
1111.8	657
1112.19	650.8
1112.58	650.4
1112.94	647.2
1113.33	635.6
1113.7	645.2
1114.09	638.8
1114.45	638
1114.84	650.8
1115.21	658
1115.6	643.2
1115.96	655.6
1116.35	654.6
1116.72	645.8
1117.11	664.2
1117.48	637.6
1117.85	647.8
1118.24	667
1118.6	651
1118.99	640.4
1119.36	654.4
1119.73	640.4
1120.12	649
1120.49	627.4
1120.86	649.2
1121.25	647.6
1121.62	640.2
1121.99	643.4
1122.38	655.2
1122.76	649.2
1123.13	640.6
1123.5	651.8
1123.89	661.6
1124.26	634.6
1124.63	646.4
1125	644.2
1125.4	632.8
1125.77	645.4
1126.14	633.6
1126.51	645.8
1126.88	652.4
1127.26	640.6
1127.63	625.6
1128.02	641
1128.4	628.4
1128.77	641.4
1129.14	646.2
1129.52	652.6
1129.89	651.4
1130.26	640
1130.64	647.8
1131.01	648.6
