#lambda/nm	C1
208.295	534.8
208.67	487.6
209.045	450.4
209.419	445.2
209.794	685.6
210.169	666
210.544	810.4
210.919	698.2
211.295	679.2
211.67	690
212.045	687.6
212.421	679.4
212.796	731.4
213.172	677.6
213.547	682.2
213.923	682.6
214.299	677.4
214.675	700.4
215.051	697.8
215.427	693.2
215.803	705.2
216.179	690.6
216.555	685.2
216.932	695.2
217.308	688.2
217.684	685.4
218.061	694.4
218.438	682.6
218.814	683.2
219.191	696
219.568	674.4
219.945	683.2
220.322	689.4
220.699	694.6
221.076	691.6
221.453	682.6
221.83	675.8
222.208	679.2
222.585	678.8
222.962	683
223.34	697.8
223.717	691.6
224.095	681
224.473	694.2
224.851	674.6
225.229	674.2
225.607	709.6
225.985	675.2
226.363	689.2
226.741	688.4
227.119	689
227.497	705.2
227.876	676
228.254	689.2
228.633	694.6
229.011	682.8
229.39	692.6
229.769	678.8
230.148	695.6
230.527	717.2
230.905	693.2
231.284	693.4
231.664	679.8
232.043	700.8
232.422	692.4
232.801	687.4
233.181	699.4
233.56	689.4
233.94	691.8
234.319	681.4
234.699	685
235.079	744.6
235.458	739
235.838	709
236.218	683
236.598	681.8
236.978	678.6
237.358	689.2
237.738	678.2
238.119	699
238.499	680.4
238.88	689.4
239.26	708.8
239.641	681.2
240.021	678.8
240.402	686
240.783	679
241.163	675.4
241.544	683.8
241.925	690.2
242.306	701.2
242.687	678.8
243.069	684.6
243.45	691.4
243.831	678.8
244.212	681.2
244.594	724.2
244.975	690.8
245.357	690.2
245.739	679.8
246.12	684.2
246.502	709.2
246.884	687.4
247.266	692.4
247.648	682.8
248.03	717.8
248.412	687.8
248.794	691
249.176	685.4
249.559	702.6
249.941	686.4
250.323	672.2
250.706	672.8
251.089	691.8
251.471	701
251.854	695.4
252.237	687.4
252.62	699.4
253.002	690.6
253.385	687
253.769	706
254.152	684.6
254.535	697.8
254.918	676.4
255.301	686.8
255.685	688.4
256.068	680.8
256.452	716.2
256.835	698
257.219	695.2
257.603	699.8
257.986	685.4
258.37	695.6
258.754	669.2
259.138	700.8
259.522	700.8
259.906	689.2
260.29	693
260.675	686.8
261.059	694.4
261.443	680.2
261.828	699
262.212	691.2
262.597	670.2
262.981	689.2
263.366	693.8
263.751	692.4
264.136	691.2
264.521	682.8
264.906	681.6
265.291	696.4
265.676	683.8
266.061	701
266.446	711
266.831	693.6
267.217	716.2
267.602	686.6
267.987	688.8
268.373	686
268.759	697.8
269.144	697.6
269.53	691
269.916	694.2
270.302	683.2
270.688	698.6
271.074	689.4
271.46	711.2
271.846	741.2
272.232	689
272.618	685.2
273.004	680.4
273.391	703.2
273.777	710.8
274.164	703.2
274.55	706.6
274.937	693
275.324	696.6
275.71	693.4
276.097	696.6
276.484	680.6
276.871	684.2
277.258	694.8
277.645	672
278.032	693.6
278.419	691.6
278.807	690.4
279.194	680.4
279.581	683
279.969	691.8
280.356	693.2
280.744	692.2
281.131	719.4
281.519	703
281.907	688
282.295	689.6
282.682	701.6
283.07	693
283.458	704.2
283.846	704.4
284.235	702.2
284.623	712.4
285.011	678.2
285.399	689.6
285.788	694.4
286.176	679.8
286.565	704.6
286.953	692
287.342	690.2
287.731	691
288.119	680
288.508	687.6
288.897	682.2
289.286	681.4
289.675	691.8
290.064	700.4
290.453	688.6
290.821	696.6
291.21	711.2
291.599	682.4
291.989	692.8
292.378	694.2
292.768	723.8
293.157	691.4
293.547	703.2
293.936	698.2
294.326	693.2
294.716	704.6
295.106	687.6
295.496	704
295.886	706.2
296.276	693.4
296.666	685.6
297.056	694
297.446	685.2
297.836	712.6
298.227	694.2
298.617	688.2
299.008	711
299.398	695
299.789	690.8
300.179	691.8
300.57	712.8
300.961	689.4
301.352	691.4
301.742	707.6
302.133	686.4
302.524	688.8
302.915	687
303.307	678
303.698	708
304.089	691.8
304.48	693.4
304.872	708.2
305.263	692.8
305.655	687.2
306.046	707.6
306.438	703.4
306.829	688.6
307.221	708.6
307.613	700.8
308.005	708.6
308.397	711.4
308.789	714.6
309.181	725.6
309.573	711.4
309.965	700.6
310.357	688.4
310.749	699.6
311.142	688
311.534	683.6
311.926	693.8
312.319	706.4
312.711	688.6
313.104	714
313.497	689.6
313.889	738.6
314.282	721.2
314.675	724.8
315.068	697
315.461	701.8
315.854	730.8
316.247	699.6
316.64	690.2
317.033	690
317.405	707.8
317.798	699.6
318.192	693.2
318.585	691.4
318.979	698
319.372	689.8
319.766	699.2
320.16	703.6
320.553	717.4
320.947	716.6
321.341	691.4
321.735	695.2
322.129	677.4
322.523	719.4
322.917	683.2
323.311	704.6
323.705	696.8
324.099	698.4
324.494	715.6
324.888	710.2
325.282	682.2
325.677	715.6
326.071	697.8
326.466	705.6
326.861	688
327.255	701.4
327.65	700.8
328.045	706.2
328.44	693.4
328.835	698.6
329.23	685.2
329.625	718
330.02	677.6
330.415	712.2
330.81	694.2
331.206	691.4
331.601	686
331.996	691.6
332.37	712.8
332.766	674
333.161	730.4
333.557	696.6
333.953	684.6
334.348	1040
334.744	686.4
335.14	682.2
335.536	691.6
335.932	703
336.328	689.6
336.724	703
337.12	694.8
337.516	700.8
337.913	696.8
338.309	705.6
338.705	690.8
339.102	708.4
339.498	689.8
339.895	704.8
340.291	685.2
340.688	710.6
341.085	683.6
341.481	690.2
341.878	688
342.275	717
342.672	690.8
343.069	687
343.466	683.2
343.842	703.2
344.239	686
344.636	698
345.033	688.2
345.431	677.8
345.828	687
346.225	684
346.623	727.6
347.02	681.2
347.418	698.6
347.816	705.6
348.213	679
348.611	704.8
349.009	685
349.407	705.4
349.805	686.6
350.203	681.6
350.601	698.6
350.999	687.6
351.397	744.6
351.795	688.6
352.193	703.6
352.57	693.2
352.969	705.2
353.367	673.8
353.766	677.6
354.164	679.8
354.563	698.8
354.961	691.4
355.36	689.4
355.759	689.6
356.158	676.8
356.557	686
356.956	685.4
357.355	680.2
357.754	694.2
358.153	704
358.552	717.4
358.951	686.8
359.35	704.2
359.75	688.6
360.149	677
360.527	671
360.926	676.4
361.326	689.8
361.726	690.4
362.125	677.6
362.525	698.6
362.925	696
363.325	682
363.724	691.2
364.124	691.8
364.524	674.2
364.924	687
365.324	693.2
365.725	668.6
366.125	690.2
366.525	682
366.904	671.8
367.304	672
367.705	709.8
368.105	698.6
368.506	683.6
368.906	689.6
369.307	681.8
369.708	698.8
370.108	670.2
370.509	698.8
370.91	668.2
371.311	685.8
371.712	692.2
372.113	682
372.514	672.2
372.894	680
373.295	673.4
373.696	691.6
374.097	701.2
374.499	720.4
374.9	686.4
375.301	683.2
375.703	696.6
376.105	671.4
376.506	690.2
376.908	686.8
377.309	691.2
377.711	689
378.113	685
378.493	684
378.895	676.8
379.297	704.4
379.699	670.4
380.102	692.8
380.504	690
380.906	683.4
381.308	711.4
381.71	685.2
382.113	692.4
382.515	688.8
382.918	691.8
383.299	686
383.701	685
384.104	695
384.507	666.6
384.909	684.8
385.312	670.4
385.715	670
386.118	684.4
386.521	674.8
386.924	698
387.327	676.8
387.709	672.8
388.112	660.8
388.515	678
388.918	683.4
389.322	697.4
389.725	674.4
390.129	709.4
390.532	693.4
390.936	686.4
391.339	670.2
391.743	678.2
392.125	680.2
392.529	691.4
392.933	704
393.337	690
393.74	684.2
394.144	690.6
394.548	679.6
394.953	682.2
395.357	685.6
395.761	676.8
396.144	684.6
396.548	679.8
396.952	686
397.357	684.6
397.761	682
398.166	671.6
398.57	674.4
398.975	672.2
399.379	686.6
399.763	740.2
400.168	682.2
400.572	682.2
400.977	682.2
401.382	704.6
401.787	696.6
402.192	704.8
402.597	695.8
403.002	669.4
403.386	699.8
403.791	708.4
404.197	676
404.602	694.6
405.007	683.8
405.413	677
405.818	684.8
406.224	675.8
406.608	684.8
407.014	668.6
407.42	703
407.825	689.6
408.231	690.8
408.637	692
409.043	699.4
409.449	673
409.834	675.8
410.24	686
410.646	698.2
411.052	705.4
411.458	691.4
411.865	689.2
412.271	694.8
412.677	684.6
413.062	686.8
413.469	683.8
413.875	726
414.282	702.6
414.689	688.2
415.095	693.4
415.502	688
415.888	692.2
416.294	671.2
416.701	737.4
417.108	677.8
417.515	694.6
417.923	684.8
418.33	705.8
418.715	699.8
419.123	679
419.53	687.4
419.937	687.4
420.345	717
420.752	684.4
421.16	700.6
421.546	689
421.953	692.2
422.361	684
422.769	688
423.177	679.8
423.585	713.2
423.992	699.8
424.379	702.6
424.787	704.2
425.195	707
425.603	690.6
426.011	701.2
426.419	704.8
426.806	701.2
427.214	689.6
427.623	703.2
428.031	706
428.44	694.2
428.848	698.4
429.235	707.6
429.644	685.8
430.053	683.6
430.461	702
430.87	714.2
431.279	689.8
431.666	675
432.075	690
432.484	689.8
432.893	684
433.302	704.4
433.711	745.2
434.099	687.8
434.508	681
434.918	676.4
435.327	697.2
435.737	696.2
436.125	691.2
436.534	690.4
436.944	692.4
437.353	695.4
437.763	700
438.173	677.8
438.561	699.8
438.971	666.4
439.381	679.2
439.791	683.2
440.201	652.2
440.589	684.2
440.999	685.8
441.409	686.6
441.819	672.4
442.23	687.2
442.619	698.6
443.029	687.2
443.439	687.2
443.85	689.2
444.26	702.4
444.649	688.2
445.06	684.8
445.471	670
445.881	689.2
446.292	696.6
446.682	713
447.092	668.2
447.503	743
447.914	678.8
448.325	678.2
448.715	682.4
449.126	686.4
449.537	686
449.948	684.2
450.338	684.6
450.75	679.2
451.161	685.8
451.572	692
451.984	678
452.374	653
452.786	675.6
453.197	690.2
453.609	681.4
453.999	668
454.411	666.6
454.823	694
455.235	692
455.647	676.4
456.037	691.6
456.449	666.6
456.862	685.6
457.274	683.4
457.665	670
458.077	688.8
458.489	721.4
458.902	681.6
459.293	680
459.705	682.6
460.118	684.8
460.53	684.6
460.921	683.4
461.334	689.6
461.747	682.8
462.16	695.2
462.551	694
462.964	679.4
463.377	669.8
463.79	679.4
464.182	692
464.595	674.6
465.008	691.4
465.421	692.6
465.813	682.8
466.226	695
466.64	669
467.053	727.8
467.445	695.8
467.859	698.6
468.272	689.6
468.686	695.8
469.078	682.4
469.492	669.8
469.906	674.8
470.298	681.8
470.712	664.6
471.126	739.4
471.54	664.2
471.933	676.6
472.347	672.6
472.761	669.2
473.175	672.6
473.568	673.8
473.982	673.6
474.397	681.6
474.79	679.6
475.204	684.2
475.619	674
476.033	682.8
476.426	676
476.841	672
477.256	700.2
477.649	666.6
478.064	666.4
478.479	674.4
478.872	671.4
479.287	655
479.702	669.4
480.118	675.4
480.511	674.4
480.927	680.4
481.342	676
481.736	687.6
482.151	661.6
482.566	688.4
482.96	680.4
483.376	686.4
483.792	672.6
484.186	682.2
484.602	678.2
485.017	685.4
485.412	681.2
485.827	677.6
486.243	676.2
486.638	707.4
487.054	683.6
487.47	698.8
487.865	683.6
488.281	668.8
488.697	675.4
489.092	677.2
489.508	666.2
489.925	688.6
490.32	658.8
490.736	685.8
491.153	679.2
491.548	683.2
491.964	693.2
492.381	661.4
492.776	675.8
493.193	685.6
493.61	683
494.006	685.6
494.422	676.8
494.84	666.2
495.235	685
495.652	671.8
496.069	681
496.465	660
496.883	680
497.3	706.8
497.696	670.8
498.113	689.4
498.509	657.4
498.927	670.4
499.344	666.8
499.741	665
500.158	686.4
500.576	692.4
500.973	669
501.39	670.8
501.787	670.2
502.205	677.8
502.623	676.8
503.02	662.8
503.438	669.6
503.856	672.4
504.253	683.4
504.671	677.2
505.068	668.6
505.486	668.6
505.905	695.2
506.302	676.2
506.72	686.2
507.118	669.2
507.536	682
507.955	673.8
508.352	669.2
508.771	688.2
509.169	679.6
509.587	668.8
510.006	680
510.404	666
510.823	669.8
511.221	677.8
511.64	675.4
512.038	701.6
512.457	672.8
512.877	677.8
513.275	662.8
513.694	669
514.092	673.8
514.512	683
514.91	676
515.33	676.8
515.749	679.2
516.148	678.2
516.568	666.8
516.966	675
517.386	663.8
517.785	677.2
518.205	665
518.603	665.4
519.024	665.4
519.444	675.8
519.843	690.4
520.263	684.6
520.662	687.6
521.082	673.4
521.481	677.2
521.902	677
522.301	668.6
522.722	682.6
523.121	675.2
523.542	667.8
523.963	673.6
524.362	679.4
524.783	674.8
525.183	668.8
525.604	680.8
526.003	668.6
526.425	668.4
526.824	680.6
527.246	683.2
527.646	687.2
528.067	676.4
528.467	673.8
528.888	685
529.289	680.2
529.71	683.2
530.11	672
530.532	673
530.932	664.4
531.354	667.8
531.755	720.4
532.176	680.8
532.577	674.6
532.999	676.4
533.4	667.6
533.822	675.8
534.223	654.8
534.645	666
535.046	659.8
535.468	678
535.869	680.8
536.292	658.6
536.693	714.8
537.115	671.4
537.516	664
537.939	664.2
538.34	691
538.742	688.4
539.165	683.4
539.566	675
539.989	667.4
540.391	667
540.814	673
541.216	671.6
541.639	671.2
542.041	673.8
542.464	664.4
542.866	666
543.268	661.6
543.691	672.2
544.093	674.6
544.517	693.2
544.919	663.8
545.343	694.4
545.745	665.6
546.147	676.2
546.571	672.6
546.974	660.2
547.398	679.6
547.8	679.2
548.224	664.4
548.627	664
549.03	679.4
549.454	660.8
549.857	651
550.281	664.4
550.684	667.2
551.087	686.6
551.512	677.2
551.915	682.4
552.34	671.2
552.743	670.4
553.146	675.4
553.571	664.8
553.975	694
554.399	657.8
554.803	734
555.207	661.2
555.632	669
556.036	673.4
556.461	672.8
556.865	676.2
557.268	670.2
557.694	674
558.098	683.2
558.502	681
558.927	672.2
559.332	664.4
559.736	668.8
560.162	682.2
560.566	672.8
560.992	677.2
561.396	680.2
561.801	667.8
562.227	672.4
562.631	665
563.036	665.4
563.462	675.6
563.867	670.4
564.272	665.2
564.698	677.8
565.103	659.6
565.508	691.8
565.935	677.6
566.34	668
566.745	686.4
567.172	669.6
567.577	701.2
567.982	689.6
568.409	680
568.815	669
569.22	669.4
569.626	687.2
570.053	651.6
570.459	674
570.865	686.4
571.292	678.8
571.698	678.2
572.104	658.4
572.531	668.4
572.937	680.6
573.343	673
573.75	669.4
574.177	677.8
574.583	672.2
574.99	662.8
575.396	681.4
575.824	668.2
576.231	680.2
576.637	653.2
577.065	699.8
577.472	668
577.879	671.6
578.286	686.6
578.714	661
579.121	668.8
579.528	673.6
579.935	690
580.364	670.2
580.771	655.6
581.178	671.8
581.585	675.4
582.014	670.4
582.421	666.8
582.829	662.8
583.236	677.6
583.644	660.8
584.073	672
584.481	671.2
584.889	660
585.296	677.4
585.726	671.2
586.134	665.6
586.542	662.2
586.95	691.4
587.358	652.4
587.787	680.6
588.196	655.2
588.604	667.4
589.012	672.8
589.421	657.4
589.851	660.4
590.259	668.8
590.668	669.6
591.076	713.2
591.485	656.6
591.894	655.8
592.324	682.8
592.733	688.6
593.142	649.6
593.551	667
593.96	714
594.369	658.2
594.8	664
595.209	669.4
595.618	642.2
596.028	663.6
596.437	656.8
596.847	674
597.256	667
597.687	673.8
598.097	674.6
598.507	662.8
598.917	675.4
599.327	677.8
599.736	666.2
600.146	683.6
600.556	670
600.988	678.4
601.398	671.2
601.808	685
602.219	653.4
602.629	678.8
603.039	675.2
603.45	696.6
603.86	670.8
604.271	685.2
604.703	674
605.114	670.6
605.525	666
605.935	678.2
606.346	688.8
606.757	677.6
607.168	674
607.579	665.8
607.99	677.2
608.402	670.6
608.813	681.2
609.224	670.6
609.636	660
610.047	658.4
610.48	672.8
610.892	681.2
611.303	676.4
611.715	669.6
612.127	666
612.539	665
612.95	665
613.362	658.8
613.774	651.4
614.186	664.2
614.599	665
615.011	682.2
615.423	659.8
615.835	651
616.248	660.2
616.66	668.2
617.073	652.8
617.485	667.4
617.898	676.2
618.311	662.2
618.723	668.6
619.136	697.2
619.549	676.6
619.962	690
620.375	662.8
620.788	672.2
621.201	662.4
621.614	677.6
622.028	666.8
622.441	666
622.854	683.2
623.268	656.2
623.681	674.6
624.095	665.8
624.509	672
624.922	683.2
625.336	655
625.728	669.8
626.142	679
626.556	693
626.97	674.4
627.384	669
627.799	661.4
628.213	674
628.627	666.8
629.041	664.8
629.456	667.8
629.87	661.8
630.285	674.8
630.699	681.4
631.093	664.2
631.507	671.4
631.922	675.2
632.337	678.6
632.752	668.2
633.167	669.2
633.582	670
633.997	663.8
634.412	661.8
634.806	670.8
635.221	657.8
635.637	682.4
636.052	648.2
636.468	675.4
636.883	692.2
637.299	673.6
637.715	658
638.109	660.2
638.525	651.2
638.941	673.8
639.357	662.4
639.773	677.4
640.189	658.6
640.584	664.2
641	670
641.416	656.6
641.832	658.6
642.249	661.6
642.665	655.2
643.06	672.6
643.477	672.4
643.894	648
644.31	661.6
644.727	659.8
645.123	657.4
645.54	656.2
645.957	673.4
646.374	685.4
646.77	666.6
647.187	694.2
647.604	667.2
648.021	644.6
648.439	654.6
648.835	667.2
649.252	664.2
649.67	664.4
650.088	668
650.484	669.2
650.902	675.6
651.32	672.6
651.738	665.8
652.134	664.6
652.552	691.4
652.971	679.4
653.389	663.6
653.786	684.6
654.204	688.4
654.622	655.2
655.019	670.6
655.438	673
655.857	671.6
656.275	669.6
656.673	654.8
657.091	747.4
657.51	658.8
657.908	677
658.327	682.8
658.746	651.2
659.144	667.4
659.563	688.8
659.982	672.8
660.38	659.6
660.8	665
661.219	673.8
661.617	660.8
662.037	666.6
662.457	683.4
662.855	646.6
663.275	700.6
663.695	665.2
664.094	654.4
664.514	664.6
664.934	657.6
665.333	673.6
665.753	645.6
666.152	655.4
666.572	657.2
666.993	678.8
667.392	667.6
667.812	666.4
668.212	658.8
668.632	676.2
669.053	661.2
669.453	677.6
669.874	674.8
670.273	666.8
670.694	654.8
671.116	669.6
671.515	674.2
671.937	660.6
672.337	665.2
672.758	664.8
673.158	674
673.58	654.6
673.98	675.6
674.402	675
674.824	660.6
675.224	658.2
675.646	661.4
676.047	652.8
676.469	662.2
676.869	671
677.292	660.4
677.693	660
678.115	657.4
678.516	668.2
678.939	667.6
679.34	662.8
679.762	671.6
680.164	678.6
680.586	660.2
680.988	657.4
681.411	690.2
681.812	656.6
682.236	657.2
682.637	653.4
683.061	654
683.462	665.8
683.864	661.8
684.288	669.2
684.69	655
685.114	673.2
685.516	686
685.94	657
686.342	675.8
686.766	656
687.168	661.8
687.571	680.2
687.995	663.2
688.398	648.6
688.822	661
689.225	678.8
689.628	677
690.052	662.8
690.456	671
690.88	664.8
691.284	651
691.687	668.2
692.112	657.6
692.515	656
692.919	660.4
693.344	664.8
693.747	664.8
694.173	659
694.577	670.8
694.98	666.4
695.406	656.8
695.81	666.8
696.214	676.6
696.64	679.8
697.044	668.8
697.448	670.4
697.874	664.8
698.279	668.8
698.684	648.2
699.11	651.8
699.514	655.8
699.919	665.4
700.324	656.8
700.75	673.2
701.156	656.4
701.561	677
701.987	673.4
702.393	672.2
702.798	674.6
703.203	668.8
703.63	653.8
704.036	659.6
704.442	664.8
704.847	653
705.274	662
705.68	666.6
706.086	671.8
706.492	660.4
706.92	667.4
707.326	676.6
707.732	664
708.139	651.8
708.545	656.6
708.973	664.4
709.38	670
709.786	659.6
710.193	687.4
710.6	665.4
711.028	655.6
711.435	662
711.842	655.6
712.249	650.8
712.656	659.8
713.064	677.8
713.492	646
713.9	656
714.307	671.4
714.715	667.2
715.123	666.8
715.53	670.8
715.938	678.2
716.367	658.4
716.775	666
717.184	646.6
717.592	665
718	673.6
718.408	695.4
718.816	710.6
719.225	665
719.633	657.4
720.042	651.8
720.472	661.8
720.881	679.8
721.29	666
721.699	653.8
722.108	668
722.517	665.2
722.926	655.4
723.335	669.2
723.744	662
724.154	666.8
724.563	669.8
724.973	669.2
725.382	660.6
725.792	667
726.202	655.8
726.612	695.4
727.022	660.6
727.432	660.2
779.813	653.6
780.223	718.2
780.634	666.6
781.044	653.2
781.454	660.4
781.865	680.4
782.276	647.4
782.686	673
783.097	661.4
783.508	666.2
783.919	666.8
784.33	674
784.741	675.6
785.152	652.6
785.563	642.6
785.974	653
786.386	671
786.776	664.2
787.188	660.8
787.599	652.2
788.011	662.8
788.423	665.4
788.835	657.2
789.247	648
789.659	649.4
790.071	652
790.483	710.8
790.874	657.4
791.286	669.4
791.699	657
792.111	670
792.524	665.4
792.937	654.8
793.349	636.4
793.741	638
794.154	651.4
794.567	679.8
794.98	650.8
795.393	648.8
795.785	668.8
796.198	653.4
796.612	660.6
797.026	654
797.439	646.8
797.831	646.2
798.245	646
798.659	662.6
799.073	656
799.487	655.2
799.88	656
800.294	650.6
800.708	660
801.123	656.2
801.516	680.8
801.93	639.4
802.345	644
802.76	653.4
803.153	671.2
803.568	674.8
803.983	663.2
804.377	668.2
804.792	644.6
805.207	641.4
805.601	659.6
806.016	697.6
806.432	652.4
806.826	704.6
807.242	676.8
807.658	667.4
808.052	650.2
808.468	651
808.884	660.2
809.279	656.6
809.695	675
810.111	683
810.506	664.2
810.922	678.2
811.339	658.4
811.734	666.8
812.151	654.4
812.546	656.8
812.963	649.8
813.38	669.2
813.776	663
814.193	683.8
814.589	653.4
815.006	657
815.402	653.2
815.82	652.6
816.237	657.8
816.633	659.4
817.051	646.8
817.448	655.8
817.866	647.4
818.262	684.2
818.68	654.8
819.077	658.8
819.495	658.4
819.892	708.8
820.311	649.4
820.708	655.2
821.127	654.8
821.524	675.6
821.943	656.2
822.34	676.2
822.759	655.8
823.157	668.6
823.576	682
823.974	664.8
824.393	785.6
824.791	651.8
825.189	655.2
825.609	660
826.007	657.2
826.427	633.4
826.826	654.8
827.246	658.6
827.644	641
828.043	668.8
828.463	655.8
828.862	664.4
829.261	656.2
829.682	652.4
830.081	666.6
830.502	644.4
830.901	662.2
831.301	654.6
831.722	648.4
832.121	652.8
832.521	655.4
832.943	667.2
833.342	652.8
833.742	651.8
834.164	662.6
834.564	654.2
834.965	672.4
835.386	650.2
835.787	662.8
836.188	654.4
836.588	659.6
837.01	654.8
837.411	640.8
837.812	669.2
838.213	659.8
838.636	652
839.037	733.6
839.438	661.8
839.84	652.6
840.263	667.6
840.664	665.6
841.066	662.4
841.468	663.6
841.891	658.4
842.293	681
842.695	666.6
843.098	670.6
843.5	658
843.902	671
844.326	659.8
844.729	657
845.131	675.2
845.534	659.2
845.937	679
846.34	685.8
846.764	649.8
847.167	665.2
847.571	655.8
847.974	668.2
848.377	659.8
848.781	717.6
849.184	669.8
849.588	648.4
849.992	650.2
850.396	655.4
850.821	672
851.225	668.6
851.63	661.6
852.034	679.4
852.438	658
852.843	707.4
853.247	652.4
853.652	656.4
854.057	677.8
854.462	658.8
854.867	660.2
855.272	692.8
855.677	667.4
856.082	654
856.487	643
856.893	660
857.298	659.2
857.704	652.8
858.11	659.6
858.516	670.4
858.922	656.4
859.328	663.2
859.734	662.2
860.14	669.8
860.525	659.4
860.931	649.2
861.338	656.2
861.745	665.8
862.151	671.2
862.558	654.4
862.965	652
863.372	659.2
863.779	655.2
864.186	679
864.572	655.8
864.98	688.2
865.387	693
865.795	646.2
866.203	666.2
866.61	637.8
867.018	662.8
867.405	662.6
867.813	658.6
868.221	660.4
868.63	651.6
869.038	668.8
869.425	700.8
869.834	660.4
870.243	656
870.652	655
871.039	652.6
871.448	656.2
871.857	667.6
872.266	658.2
872.654	660.8
873.064	653.4
873.473	669.2
873.883	653.2
874.271	652.6
874.681	665
875.091	641.8
875.48	675
875.89	674.6
876.3	648.4
876.689	652.8
877.1	657
877.51	661.4
877.9	685.8
878.31	654.4
878.721	691.2
879.111	662.2
879.522	653.8
879.933	649.8
880.323	653.2
880.734	652
881.125	657
881.536	651.2
881.948	652.2
882.338	664
882.75	657
883.141	648
883.553	666.6
883.944	687
884.356	670.4
884.769	656
885.16	656.4
885.573	658
885.964	651
886.377	660.2
886.768	648
887.181	654
887.573	658
887.987	660.6
888.378	669.4
888.792	670.2
889.184	707
889.598	652.2
889.99	662.4
890.383	653.6
890.797	647.4
891.19	666.4
891.604	653
891.997	641.6
892.411	652.8
892.805	658.8
893.198	652.2
893.613	644.2
894.006	653.4
894.421	641.6
894.815	650
895.209	644.4
895.624	694
896.018	676.2
896.412	640.6
896.828	649.6
897.222	653.6
897.617	651.2
898.033	675.6
898.427	654.8
898.822	659.6
899.239	649
899.634	646.2
900.029	663.4
900.424	644.2
900.841	640.6
901.236	667.2
901.632	656.4
902.027	724.6
902.445	665
902.841	661.4
903.237	653.6
903.633	671.4
904.05	660.2
904.447	657.6
904.843	660.6
905.24	656
905.636	646.6
906.033	648.8
906.451	665
906.848	654.6
907.246	647.6
907.643	655.8
908.04	656.4
908.438	671.2
908.835	668
909.254	651.8
909.652	660.4
910.05	649
910.448	648.6
910.846	656
911.244	639.6
911.643	659.6
912.041	652
912.44	675.2
912.839	643
913.237	644.6
913.636	649.4
914.035	655.8
914.434	645.6
914.834	667.8
915.233	666.2
915.633	647.6
916.032	645
916.432	648.6
916.832	667
917.232	651.2
917.632	641.8
918.032	652.8
918.432	642
918.833	652.4
919.233	647.6
919.634	638
920.035	654.4
920.436	643.4
920.837	656.8
921.238	648.4
921.639	658.2
922.019	654.6
922.42	651.4
922.822	659
923.224	656.4
923.625	650.6
924.027	663.8
924.429	676.6
924.81	655.4
925.212	663.4
925.615	661.8
926.017	659.6
926.42	670.4
926.801	663.4
927.204	653.8
927.607	661.8
928.01	674.6
928.413	653.4
928.795	640.2
929.199	647.8
929.602	649.8
930.006	651
930.388	641.4
930.792	661.8
931.196	655
931.579	686.6
931.983	644.6
932.388	709
932.771	649.4
933.176	642.4
933.58	654
933.964	660.8
934.369	644.2
934.774	654.8
935.158	652.4
935.563	651.4
935.947	653.6
936.353	663.2
936.759	654
937.143	661.8
937.549	647.6
937.934	664.6
938.34	677
938.746	652.8
939.131	654.6
939.538	639
939.923	665.8
940.33	647.6
940.716	655.6
941.123	665
941.508	655.8
941.916	678.6
942.302	650
942.709	649.2
943.096	650.2
943.503	658.4
943.89	652.4
944.298	655.4
944.685	689
945.072	648.8
945.48	676
945.867	650.2
946.276	652.6
946.663	682.6
947.051	671.2
947.46	665.2
947.848	653.4
948.257	653.2
948.645	657
949.033	651
949.443	649.8
949.831	698
950.22	653.6
950.63	662.4
951.018	687.8
951.407	649.8
951.796	650
952.207	668
952.596	663.8
952.985	645.8
953.375	702.6
953.786	655.6
954.176	646.2
954.566	667.8
954.956	644.4
955.367	651.6
955.758	675.4
956.148	635.6
956.539	668.8
956.929	647.2
957.341	649.4
957.732	649.4
958.123	662.2
958.515	643.2
958.906	665.4
959.297	643.6
959.689	653.4
960.102	647.2
960.494	664.4
960.886	658.8
961.278	655.6
961.67	684.6
962.062	695.6
962.455	657.4
962.847	636.6
963.24	651.2
963.633	644.8
964.026	639.6
964.419	651.2
964.812	663
965.206	646.4
965.599	660.4
965.993	646.2
966.386	657
966.78	667.2
967.174	665.2
967.569	647
967.963	651.6
968.357	652
968.752	641.4
969.146	651.4
969.541	650
969.936	643.8
970.331	650.4
970.705	658.6
971.1	648.6
971.496	658.2
971.892	645.6
972.287	653.2
972.683	657.2
973.079	641.8
973.454	672.8
973.85	651.2
974.247	663
974.643	681.2
975.04	657.4
975.415	656
975.812	655.4
976.209	664.8
976.607	640.6
976.982	659.2
977.38	669.4
977.778	653
978.175	651.6
978.552	660.4
978.95	666.2
979.348	662
979.725	701.6
980.123	647.2
980.522	654.6
980.899	647
981.298	659.8
981.697	654.2
982.075	648.4
982.474	642.4
982.852	656
983.251	656
983.651	655.2
984.029	659
984.429	656.4
984.808	643.2
985.208	646.2
985.609	644.6
985.987	636.8
986.388	642.6
986.768	659.4
987.168	647
987.548	662.4
987.949	667.8
988.329	661.2
988.731	642
989.111	659
989.491	646.2
989.893	654.4
990.273	670.8
990.676	638
991.057	643.8
991.459	643.2
991.84	646.6
992.221	639
992.624	667.8
993.006	649.6
993.388	655.8
993.791	655.8
994.173	653.6
994.576	694.2
994.959	639.4
995.341	648.6
995.724	646.6
996.128	642.6
996.511	654
996.894	641.8
997.298	642
997.681	654.6
998.065	648.6
998.448	646.4
998.854	661
999.237	638.2
999.621	663.6
1000.01	665.8
1000.39	655.2
1000.8	649
1001.18	649.2
1001.56	645.4
1001.95	657.6
1002.33	659.8
1002.72	644.6
1003.13	646.8
1003.51	650.6
1003.9	644.2
1004.28	668.2
1004.67	644.6
1005.06	649.2
1005.44	684.6
1005.83	645.6
1006.21	651.2
1006.6	653.2
1006.99	659.2
1007.37	670.6
1007.76	649.4
1060.12	642.4
1060.51	641
1060.89	658.8
1061.28	668.4
1061.67	666.6
1062.06	655
1062.45	650.6
1062.83	641
1063.22	657.8
1063.61	695.8
1064	656.2
1064.39	646.8
1064.78	652.8
1065.14	662.4
1065.53	645.6
1065.92	642.8
1066.31	639.2
1066.7	658.8
1067.09	666.6
1067.46	660.2
1067.85	645.6
1068.24	645.8
1068.63	652.8
1069.02	648
1069.39	658.8
1069.78	640
1070.17	644.6
1070.57	633.6
1070.93	653
1071.33	638.8
1071.72	659.6
1072.11	650
1072.48	649.8
1072.87	642.2
1073.26	646.4
1073.64	650.6
1074.03	637.6
1074.4	643.2
1074.79	642.4
1075.19	645.2
1075.56	655.4
1075.95	663.6
1076.34	652
1076.72	642.8
1077.11	658.8
1077.48	668.8
1077.88	661.6
1078.25	651.4
1078.64	659.6
1079.02	659.4
1079.41	659.2
1079.78	651.6
1080.18	648.4
1080.55	736
1080.95	643.4
1081.32	643.2
1081.72	658
1082.09	658.6
1082.49	640.2
1082.86	652.2
1083.24	635
1083.63	627.8
1084.01	649
1084.38	663.6
1084.78	645.6
1085.16	651.8
1085.55	661.2
1085.93	677.2
1086.31	641.2
1086.7	680.2
1087.08	651.4
1087.46	651.8
1087.83	643.4
1088.23	657
1088.61	652
1088.99	647.2
1089.36	647.6
1089.76	658.6
1090.14	647.8
1090.52	653
1090.9	645.8
1091.27	655
1091.67	685.6
1092.05	664.2
1092.43	644
1092.81	669.8
1093.19	669.2
1093.57	647.6
1093.95	646.2
1094.35	662.4
1094.73	660
1095.11	644
1095.49	655.8
1095.87	648.6
1096.25	664.2
1096.63	664.8
1097.01	653.8
1097.39	661
1097.77	647
1098.15	651.4
1098.53	649
1098.91	647.2
1099.29	645.8
1099.68	668.4
1100.06	661.4
1100.44	652.2
1100.82	662.2
1101.18	663
1101.56	646.6
1101.95	653.8
1102.33	646.6
1102.71	657.2
1103.1	648.4
1103.48	630.6
1103.86	644
1104.22	652.8
1104.61	649
1104.99	644.8
1105.38	637.4
1105.76	651.8
1106.12	647.6
1106.51	687
1106.89	661.4
1107.26	646.6
1107.64	659.2
1108.03	646.8
1108.41	648.8
1108.78	656.4
1109.16	653.4
1109.55	657.6
1109.91	639
1110.3	634
1110.69	674.8
1111.05	651
1111.44	646
1111.8	657.4
1112.19	652.4
1112.58	652.2
1112.94	652.8
1113.33	643.2
1113.7	644.6
1114.09	653.2
1114.45	643.4
1114.84	658.2
1115.21	665.4
1115.6	648
1115.96	659.2
1116.35	663
1116.72	642.2
1117.11	663
1117.48	649.8
1117.85	645.8
1118.24	665
1118.6	648.4
1118.99	644.2
1119.36	658.6
1119.73	651
1120.12	647.6
1120.49	640.8
1120.86	652.4
1121.25	645.8
1121.62	640.4
1121.99	645.2
1122.38	672.4
1122.76	651.2
1123.13	639.6
1123.5	657.4
1123.89	665.6
1124.26	638.2
1124.63	652
1125	642.2
1125.4	641.4
1125.77	640
1126.14	634
1126.51	645
1126.88	650.2
1127.26	644.4
1127.63	630.6
1128.02	642.2
1128.4	634.8
1128.77	643.4
1129.14	645
1129.52	643.4
1129.89	656.6
1130.26	644.4
1130.64	633.8
1131.01	649.2
