#lambda/nm	C1
208.295	541.4
208.67	492.8
209.045	451.4
209.419	453.6
209.794	686
210.169	666.4
210.544	808.8
210.919	683.8
211.295	679.8
211.67	683.2
212.045	680
212.421	678.2
212.796	736.2
213.172	687.8
213.547	685.4
213.923	687
214.299	686.4
214.675	684.4
215.051	689.8
215.427	696
215.803	703.8
216.179	695.2
216.555	675.8
216.932	697.4
217.308	684.8
217.684	683.8
218.061	689.6
218.438	688.2
218.814	679.2
219.191	699.2
219.568	688.2
219.945	685.2
220.322	703.4
220.699	698
221.076	701.8
221.453	699.4
221.83	680
222.208	681.6
222.585	685.2
222.962	688.8
223.34	691.6
223.717	695
224.095	684.2
224.473	695.8
224.851	693.8
225.229	682.8
225.607	711.8
225.985	670
226.363	683.6
226.741	689.6
227.119	686.4
227.497	701.8
227.876	675.2
228.254	692.2
228.633	690.6
229.011	686.2
229.39	695
229.769	690.2
230.148	684.4
230.527	711.8
230.905	687.8
231.284	686.8
231.664	684.6
232.043	711.8
232.422	693.2
232.801	687.2
233.181	697.4
233.56	687
233.94	687.2
234.319	671.4
234.699	681.2
235.079	732.4
235.458	727
235.838	712.2
236.218	680.8
236.598	678.2
236.978	682.2
237.358	685.4
237.738	685
238.119	696.6
238.499	677.6
238.88	688.6
239.26	705.6
239.641	678.6
240.021	683.2
240.402	686
240.783	687.2
241.163	684.8
241.544	687.6
241.925	683.8
242.306	702.2
242.687	677.2
243.069	690
243.45	694
243.831	679.4
244.212	682.4
244.594	725.4
244.975	689.8
245.357	689
245.739	682.4
246.12	691.4
246.502	697.6
246.884	692
247.266	685
247.648	690.4
248.03	715
248.412	699.6
248.794	695.4
249.176	675.4
249.559	698.6
249.941	689
250.323	681.8
250.706	674.2
251.089	694
251.471	685.6
251.854	683.4
252.237	692
252.62	698.6
253.002	691.2
253.385	689
253.769	709
254.152	696.4
254.535	689.2
254.918	684.2
255.301	688
255.685	682.4
256.068	680.2
256.452	724.2
256.835	700.6
257.219	694
257.603	703.2
257.986	678
258.37	701
258.754	676.6
259.138	699.2
259.522	698.6
259.906	680.8
260.29	691.6
260.675	688.6
261.059	689.2
261.443	679.2
261.828	697.6
262.212	697.6
262.597	676.8
262.981	688.6
263.366	708.8
263.751	690.8
264.136	686.6
264.521	677
264.906	679.8
265.291	709.2
265.676	687.2
266.061	695.2
266.446	712.4
266.831	697.6
267.217	713.6
267.602	693
267.987	693.8
268.373	680.4
268.759	698.2
269.144	697.2
269.53	694
269.916	681.2
270.302	687.6
270.688	703
271.074	692.2
271.46	699.4
271.846	727.8
272.232	691.8
272.618	672.8
273.004	694.4
273.391	697.2
273.777	705
274.164	690.2
274.55	705.8
274.937	689.8
275.324	685.4
275.71	694.8
276.097	692.6
276.484	685.8
276.871	688.4
277.258	695.4
277.645	664.4
278.032	683.2
278.419	678.6
278.807	685
279.194	678.2
279.581	682
279.969	691
280.356	689.6
280.744	687.6
281.131	717.2
281.519	701.6
281.907	690.8
282.295	682.8
282.682	695.8
283.07	687.4
283.458	698.6
283.846	704.8
284.235	702
284.623	704.6
285.011	678
285.399	690.4
285.788	689.6
286.176	689.2
286.565	705
286.953	687.4
287.342	696.4
287.731	682.4
288.119	679.8
288.508	690.6
288.897	684.4
289.286	683.6
289.675	693.8
290.064	705.8
290.453	695
290.821	694
291.21	713.4
291.599	680.2
291.989	696
292.378	691.6
292.768	720.2
293.157	689.2
293.547	705.6
293.936	690.8
294.326	687
294.716	684.8
295.106	686.2
295.496	700
295.886	702.8
296.276	690.2
296.666	682.4
297.056	696
297.446	681
297.836	712.2
298.227	683.4
298.617	692
299.008	705.4
299.398	691
299.789	678
300.179	699.4
300.57	706.8
300.961	690.6
301.352	691
301.742	700.4
302.133	694.4
302.524	690
302.915	692.8
303.307	683
303.698	706.8
304.089	702.6
304.48	684.4
304.872	698.6
305.263	688.2
305.655	690.4
306.046	704
306.438	699
306.829	687
307.221	701.2
307.613	701.8
308.005	701.8
308.397	708.4
308.789	725.2
309.181	723.4
309.573	721.6
309.965	704.8
310.357	689.4
310.749	703.6
311.142	687.4
311.534	682.8
311.926	702.8
312.319	691
312.711	680.6
313.104	701.8
313.497	702
313.889	730.6
314.282	719
314.675	723
315.068	697.2
315.461	699.4
315.854	721.8
316.247	695.8
316.64	693.6
317.033	692.6
317.405	707.6
317.798	686.8
318.192	695.6
318.585	678.8
318.979	704.2
319.372	682
319.766	680
320.16	701.6
320.553	705.8
320.947	716.8
321.341	683.2
321.735	692
322.129	675.2
322.523	723.6
322.917	684.6
323.311	697.4
323.705	691.4
324.099	698.6
324.494	721.2
324.888	703.8
325.282	693
325.677	707.2
326.071	698.6
326.466	712
326.861	705.4
327.255	709.2
327.65	708.4
328.045	717.4
328.44	696.2
328.835	689
329.23	687.6
329.625	717
330.02	686
330.415	720
330.81	699.6
331.206	698
331.601	681.4
331.996	702.6
332.37	718.2
332.766	674.6
333.161	715.8
333.557	689.8
333.953	688.8
334.348	1091
334.744	689.4
335.14	690.2
335.536	686.6
335.932	702.6
336.328	690.4
336.724	698
337.12	688.8
337.516	701.8
337.913	697.8
338.309	704.4
338.705	687.2
339.102	708
339.498	689
339.895	711.2
340.291	681.6
340.688	705
341.085	696.8
341.481	691.2
341.878	693
342.275	712
342.672	684.8
343.069	689.2
343.466	678.2
343.842	698.6
344.239	678
344.636	688.2
345.033	678
345.431	685
345.828	680
346.225	688.2
346.623	724.4
347.02	687
347.418	691
347.816	698.8
348.213	675.2
348.611	691.6
349.009	690.4
349.407	709.4
349.805	674.8
350.203	675
350.601	704.4
350.999	676.2
351.397	758.6
351.795	685
352.193	703
352.57	701.8
352.969	705.4
353.367	674.8
353.766	681.8
354.164	689.6
354.563	694
354.961	693.8
355.36	692
355.759	684.2
356.158	671.6
356.557	679
356.956	673.4
357.355	672.8
357.754	700.6
358.153	696
358.552	720.2
358.951	690.2
359.35	699.2
359.75	673.2
360.149	672.4
360.527	669
360.926	677.8
361.326	691.2
361.726	683.8
362.125	677.6
362.525	688.2
362.925	688.6
363.325	682.4
363.724	693.4
364.124	675
364.524	683.6
364.924	681.2
365.324	701.2
365.725	668
366.125	693.8
366.525	685.4
366.904	678.6
367.304	667
367.705	710
368.105	697.6
368.506	680.6
368.906	682.4
369.307	686.4
369.708	690.8
370.108	678.4
370.509	698.6
370.91	677.4
371.311	678
371.712	688.8
372.113	684.2
372.514	669.4
372.894	672
373.295	680.4
373.696	701.2
374.097	692.4
374.499	712.4
374.9	685.8
375.301	675
375.703	690
376.105	677
376.506	676.4
376.908	689.2
377.309	681
377.711	698
378.113	673.2
378.493	676.8
378.895	674
379.297	693
379.699	671
380.102	683
380.504	685.2
380.906	677.6
381.308	710.6
381.71	680.2
382.113	688
382.515	676.8
382.918	687.6
383.299	685.4
383.701	695.8
384.104	691.6
384.507	653.8
384.909	683
385.312	667.6
385.715	672.2
386.118	681.2
386.521	665.4
386.924	698.6
387.327	665
387.709	664.4
388.112	667
388.515	679
388.918	685
389.322	692.6
389.725	670.4
390.129	708.2
390.532	684.8
390.936	680.4
391.339	675
391.743	695.2
392.125	678.4
392.529	696.4
392.933	699.8
393.337	682.6
393.74	682
394.144	682.8
394.548	673.2
394.953	689.2
395.357	683.4
395.761	679.8
396.144	689.6
396.548	688.2
396.952	685.6
397.357	684.6
397.761	676.8
398.166	678.8
398.57	681.6
398.975	675
399.379	684
399.763	741.8
400.168	683.8
400.572	681.8
400.977	678.6
401.382	702.4
401.787	694.2
402.192	706.6
402.597	703.8
403.002	677.8
403.386	694
403.791	711
404.197	684.6
404.602	680.2
405.007	684.2
405.413	680.2
405.818	684.2
406.224	679
406.608	679.2
407.014	673.8
407.42	696.8
407.825	673.4
408.231	695
408.637	697.4
409.043	705
409.449	678
409.834	672.8
410.24	680.8
410.646	699.4
411.052	692.6
411.458	693.6
411.865	693.2
412.271	698.6
412.677	686.6
413.062	689
413.469	673.6
413.875	712.4
414.282	699.6
414.689	690.6
415.095	694.2
415.502	681.4
415.888	686.4
416.294	665
416.701	724.8
417.108	676.6
417.515	691.4
417.923	677.8
418.33	707.2
418.715	696.6
419.123	685.2
419.53	672.6
419.937	682.4
420.345	703.6
420.752	684
421.16	706
421.546	684.4
421.953	685.8
422.361	675.8
422.769	688.6
423.177	679.8
423.585	718
423.992	704.2
424.379	698
424.787	704.2
425.195	710.4
425.603	690.4
426.011	704.4
426.419	699.6
426.806	687.8
427.214	690.8
427.623	700.8
428.031	707
428.44	699.2
428.848	705
429.235	702.2
429.644	689
430.053	686.4
430.461	704
430.87	722
431.279	709.6
431.666	683
432.075	697.2
432.484	691.8
432.893	691
433.302	711.4
433.711	748.2
434.099	706
434.508	687.8
434.918	683.6
435.327	707.8
435.737	697.6
436.125	697.4
436.534	698.2
436.944	696.8
437.353	703.8
437.763	716.6
438.173	688.6
438.561	722.8
438.971	679.8
439.381	699.2
439.791	706.8
440.201	684.4
440.589	706
440.999	710.8
441.409	709
441.819	696.8
442.23	718.6
442.619	716
443.029	704.6
443.439	709.4
443.85	731.6
444.26	726.6
444.649	726
445.06	719
445.471	706.6
445.881	711.6
446.292	725.8
446.682	740.8
447.092	700.8
447.503	776.8
447.914	712.8
448.325	714.4
448.715	716.4
449.126	706.6
449.537	715.6
449.948	712.6
450.338	705.4
450.75	723.8
451.161	717.4
451.572	715.6
451.984	708.8
452.374	698.6
452.786	710.8
453.197	726.8
453.609	733.4
453.999	704
454.411	700.6
454.823	725.4
455.235	713.4
455.647	716.6
456.037	719
456.449	695.4
456.862	711.6
457.274	722.8
457.665	697.4
458.077	716.6
458.489	742.6
458.902	713.2
459.293	719
459.705	714.6
460.118	711
460.53	719.4
460.921	715.2
461.334	715
461.747	721.6
462.16	727.8
462.551	725
462.964	725.4
463.377	696.8
463.79	710.4
464.182	724
464.595	703.8
465.008	714.4
465.421	724.2
465.813	718.4
466.226	718
466.64	711.4
467.053	769.2
467.445	725.2
467.859	739.4
468.272	725.2
468.686	731.4
469.078	719.6
469.492	711.4
469.906	719.2
470.298	724.4
470.712	709.8
471.126	784
471.54	704.4
471.933	715
472.347	711.6
472.761	710.8
473.175	706.2
473.568	715
473.982	703.2
474.397	715.8
474.79	711.4
475.204	724
475.619	721.4
476.033	716.8
476.426	722.6
476.841	705
477.256	746
477.649	703.8
478.064	703
478.479	712.6
478.872	708.2
479.287	692.8
479.702	705.2
480.118	706.8
480.511	707.6
480.927	702.8
481.342	706.4
481.736	708.6
482.151	700.2
482.566	717.4
482.96	713.4
483.376	713.4
483.792	697.4
484.186	712.8
484.602	706.6
485.017	704.8
485.412	709.4
485.827	707.8
486.243	703.8
486.638	733.8
487.054	706.4
487.47	722.6
487.865	701.2
488.281	699.6
488.697	701.2
489.092	704.8
489.508	691.6
489.925	721.8
490.32	684.6
490.736	707
491.153	715.2
491.548	703
491.964	716
492.381	685.8
492.776	710.4
493.193	703
493.61	712.6
494.006	714.8
494.422	722.4
494.84	701.8
495.235	709.6
495.652	708
496.069	700.8
496.465	698.4
496.883	700.6
497.3	727
497.696	694.2
498.113	714.2
498.509	688.8
498.927	699.8
499.344	691.6
499.741	693
500.158	709.2
500.576	709
500.973	700.8
501.39	693.2
501.787	691.6
502.205	707.4
502.623	696.8
503.02	683.4
503.438	686.8
503.856	683.2
504.253	709.4
504.671	705
505.068	683.8
505.486	702.8
505.905	723.4
506.302	686.2
506.72	714
507.118	689.6
507.536	694.2
507.955	698.2
508.352	700.2
508.771	701.8
509.169	700
509.587	690.8
510.006	693.6
510.404	681.2
510.823	687
511.221	689.6
511.64	696.6
512.038	706.4
512.457	691
512.877	697.6
513.275	682.4
513.694	693
514.092	685.4
514.512	697
514.91	692.6
515.33	689
515.749	695.8
516.148	697
516.568	686.8
516.966	694.2
517.386	691.8
517.785	696.4
518.205	682.4
518.603	695
519.024	684.6
519.444	694.2
519.843	703.2
520.263	702.4
520.662	690.2
521.082	677.4
521.481	692.6
521.902	678
522.301	680.2
522.722	687.8
523.121	682
523.542	679.8
523.963	687.6
524.362	684.8
524.783	696.4
525.183	687.4
525.604	687.8
526.003	677.6
526.425	675.8
526.824	693.8
527.246	687.8
527.646	686.4
528.067	685
528.467	682.8
528.888	694.4
529.289	675.8
529.71	683.8
530.11	674.2
530.532	680.8
530.932	673.2
531.354	670.2
531.755	714.8
532.176	695.8
532.577	681.8
532.999	686.2
533.4	679
533.822	689
534.223	687
534.645	676.4
535.046	683
535.468	681.4
535.869	700.6
536.292	680
536.693	724.4
537.115	683.8
537.516	674.6
537.939	682.8
538.34	693.8
538.742	699.6
539.165	687.8
539.566	677.6
539.989	662.2
540.391	674
540.814	682.4
541.216	676.2
541.639	674.8
542.041	686
542.464	671.4
542.866	675.4
543.268	660
543.691	681.6
544.093	678.8
544.517	696
544.919	668.8
545.343	706.2
545.745	669.4
546.147	681.6
546.571	677.2
546.974	659
547.398	679.8
547.8	697.8
548.224	679.6
548.627	671.2
549.03	674.6
549.454	671.6
549.857	664.6
550.281	672.6
550.684	675.2
551.087	690.8
551.512	684
551.915	680
552.34	672
552.743	678
553.146	672.6
553.571	668.4
553.975	689.6
554.399	653
554.803	736
555.207	670.6
555.632	662.6
556.036	670.4
556.461	662
556.865	678.8
557.268	675.4
557.694	672.2
558.098	683.2
558.502	677.2
558.927	669.2
559.332	669.2
559.736	678.2
560.162	686.4
560.566	674.2
560.992	681.2
561.396	674.2
561.801	669.4
562.227	681.2
562.631	670.6
563.036	682.8
563.462	679
563.867	673
564.272	654.6
564.698	682.6
565.103	661.2
565.508	701
565.935	676.6
566.34	665.8
566.745	682.6
567.172	667.2
567.577	689.4
567.982	682.8
568.409	678
568.815	660.6
569.22	677.6
569.626	680.8
570.053	667
570.459	673.6
570.865	683.6
571.292	680.4
571.698	681.8
572.104	656
572.531	675
572.937	686.4
573.343	671.2
573.75	666.8
574.177	671.2
574.583	672.2
574.99	677.4
575.396	680.8
575.824	669.6
576.231	675.4
576.637	668
577.065	702.2
577.472	663
577.879	668.4
578.286	683.6
578.714	659.6
579.121	668
579.528	676.6
579.935	685.4
580.364	669.8
580.771	657
581.178	655.4
581.585	679
582.014	680
582.421	670.2
582.829	660.2
583.236	680.4
583.644	659.8
584.073	670.4
584.481	659.8
584.889	663.2
585.296	677.8
585.726	667.6
586.134	662.2
586.542	667.4
586.95	686.4
587.358	655.2
587.787	675
588.196	663.2
588.604	668.4
589.012	665.6
589.421	652.2
589.851	663.6
590.259	668.6
590.668	662.6
591.076	709.4
591.485	654
591.894	663.8
592.324	681.4
592.733	670.2
593.142	653.4
593.551	667.4
593.96	666.2
594.369	657.4
594.8	654.4
595.209	662.8
595.618	656.2
596.028	658.6
596.437	654.6
596.847	661.4
597.256	666.2
597.687	673
598.097	668.4
598.507	652.4
598.917	662.6
599.327	676.8
599.736	665.2
600.146	684
600.556	663.8
600.988	692.4
601.398	669.6
601.808	683
602.219	649.8
602.629	675.2
603.039	667
603.45	700.2
603.86	659.8
604.271	687.6
604.703	671.6
605.114	667.6
605.525	674.2
605.935	677.6
606.346	692.6
606.757	681.8
607.168	666
607.579	660.2
607.99	680.4
608.402	679.2
608.813	682
609.224	661.2
609.636	645.6
610.047	657.6
610.48	668.2
610.892	679.2
611.303	678.6
611.715	666.6
612.127	660
612.539	671
612.95	665.8
613.362	654.2
613.774	655
614.186	663
614.599	666.6
615.011	677
615.423	655.4
615.835	661.6
616.248	657.6
616.66	660.6
617.073	653.4
617.485	666.4
617.898	672
618.311	670.2
618.723	663.2
619.136	704.8
619.549	684.8
619.962	690.4
620.375	666.6
620.788	672.8
621.201	652.8
621.614	668.8
622.028	662.6
622.441	670.4
622.854	682.6
623.268	652.6
623.681	663
624.095	672.6
624.509	679.6
624.922	683.4
625.336	662.2
625.728	667.8
626.142	673.2
626.556	677.6
626.97	668.2
627.384	658.8
627.799	657.4
628.213	675.8
628.627	663.6
629.041	658.6
629.456	655.2
629.87	658.2
630.285	672.8
630.699	668.2
631.093	663
631.507	666.8
631.922	670.8
632.337	684.4
632.752	658.6
633.167	668.4
633.582	654.8
633.997	666.8
634.412	655
634.806	665
635.221	659.2
635.637	678
636.052	655.6
636.468	668.4
636.883	684
637.299	655.4
637.715	647.8
638.109	662.2
638.525	648.4
638.941	677.2
639.357	670.6
639.773	677.8
640.189	661.8
640.584	661
641	662.2
641.416	658.8
641.832	672.6
642.249	665.6
642.665	662.4
643.06	681.8
643.477	670.4
643.894	652.6
644.31	659
644.727	662.4
645.123	664.2
645.54	656.6
645.957	665.2
646.374	684
646.77	666.4
647.187	695.2
647.604	663.8
648.021	649.2
648.439	652
648.835	664.4
649.252	672
649.67	662
650.088	661
650.484	669.2
650.902	672.4
651.32	674.4
651.738	666.8
652.134	664.4
652.552	680
652.971	680.6
653.389	662.6
653.786	681.2
654.204	681.8
654.622	662.8
655.019	664
655.438	675.8
655.857	666.4
656.275	668
656.673	653.8
657.091	746
657.51	658.6
657.908	670.4
658.327	679.2
658.746	655.2
659.144	655.4
659.563	676.6
659.982	657.4
660.38	652.2
660.8	666.2
661.219	682.2
661.617	663.6
662.037	662.2
662.457	680.6
662.855	645
663.275	704.4
663.695	673.6
664.094	661.2
664.514	670.8
664.934	653.2
665.333	673.6
665.753	651.4
666.152	648.2
666.572	656.2
666.993	672.8
667.392	651.8
667.812	651.4
668.212	656
668.632	674.2
669.053	654.8
669.453	670
669.874	665
670.273	668.2
670.694	658
671.116	674.4
671.515	688.8
671.937	654.6
672.337	661.8
672.758	650
673.158	676
673.58	647
673.98	667.2
674.402	676
674.824	657.4
675.224	656
675.646	650.6
676.047	663.8
676.469	663.2
676.869	676.6
677.292	666.6
677.693	654.2
678.115	649.4
678.516	673.2
678.939	667.2
679.34	663.2
679.762	684
680.164	674.8
680.586	654
680.988	661.6
681.411	695.2
681.812	660.2
682.236	650.8
682.637	647.8
683.061	647
683.462	662.4
683.864	662.6
684.288	669.8
684.69	661.2
685.114	672.2
685.516	669
685.94	650.4
686.342	663.8
686.766	657.2
687.168	654.8
687.571	697.4
687.995	664.2
688.398	654.6
688.822	655.2
689.225	671.8
689.628	674.6
690.052	668.4
690.456	668.2
690.88	661.2
691.284	650.2
691.687	679
692.112	657.8
692.515	654.4
692.919	664.6
693.344	661
693.747	663.4
694.173	645.2
694.577	671.6
694.98	656.4
695.406	658.6
695.81	670.6
696.214	670.4
696.64	661.8
697.044	663.6
697.448	673.6
697.874	656.4
698.279	659.6
698.684	651.2
699.11	656
699.514	663.4
699.919	657.6
700.324	645.6
700.75	657.4
701.156	649
701.561	671.2
701.987	662.8
702.393	665.8
702.798	669.2
703.203	660
703.63	663
704.036	661.6
704.442	659.4
704.847	656.8
705.274	664.6
705.68	665.6
706.086	674
706.492	655.4
706.92	657
707.326	677.8
707.732	657.8
708.139	648
708.545	653.4
708.973	655.4
709.38	660.8
709.786	651.8
710.193	669
710.6	667.2
711.028	657.2
711.435	669.4
711.842	661
712.249	662.2
712.656	664.8
713.064	673.8
713.492	644.6
713.9	656.8
714.307	658.2
714.715	660
715.123	674.6
715.53	659.8
715.938	668
716.367	663.8
716.775	656.2
717.184	656.6
717.592	659
718	680.8
718.408	703.6
718.816	709.4
719.225	653.2
719.633	670.8
720.042	656.2
720.472	662.8
720.881	687.4
721.29	671
721.699	657.8
722.108	667.6
722.517	663
722.926	658
723.335	669.8
723.744	663.2
724.154	659.6
724.563	668.8
724.973	666.4
725.382	662.6
725.792	654.8
726.202	654
726.612	680.4
727.022	664.8
727.432	657.6
779.813	650.8
780.223	706.6
780.634	660.6
781.044	651
781.454	654.6
781.865	667
782.276	651.2
782.686	674.8
783.097	658.2
783.508	647.4
783.919	656
784.33	679.6
784.741	673.4
785.152	651.4
785.563	645.4
785.974	662.4
786.386	674.2
786.776	650.6
787.188	653.8
787.599	649.8
788.011	664.4
788.423	666.4
788.835	659.8
789.247	652.2
789.659	652
790.071	658.2
790.483	701.8
790.874	650.6
791.286	665.4
791.699	653.6
792.111	661.8
792.524	665
792.937	652.8
793.349	657.4
793.741	648.2
794.154	654.6
794.567	689.2
794.98	663.6
795.393	652.2
795.785	676.8
796.198	653.2
796.612	657.2
797.026	654.2
797.439	650
797.831	661.2
798.245	650.2
798.659	664.4
799.073	648.6
799.487	649.8
799.88	656.6
800.294	662.6
800.708	666.8
801.123	666.2
801.516	670.6
801.93	644.8
802.345	639
802.76	659.4
803.153	672.8
803.568	678
803.983	670.2
804.377	664.2
804.792	640.6
805.207	640.2
805.601	666.4
806.016	701.4
806.432	659.2
806.826	691
807.242	670.2
807.658	666.6
808.052	649.6
808.468	651.8
808.884	656.4
809.279	670.8
809.695	669.4
810.111	690.8
810.506	657.2
810.922	678
811.339	658
811.734	670
812.151	660.8
812.546	649.4
812.963	656.6
813.38	656.6
813.776	658.2
814.193	686.8
814.589	654
815.006	657.6
815.402	646.4
815.82	652.2
816.237	661.6
816.633	667.6
817.051	657.8
817.448	661.2
817.866	648.2
818.262	671.4
818.68	658.6
819.077	656.6
819.495	666.4
819.892	702.4
820.311	652.8
820.708	650.2
821.127	651.8
821.524	659.8
821.943	662.2
822.34	669.6
822.759	655
823.157	656.4
823.576	670.6
823.974	671.6
824.393	781.2
824.791	651.8
825.189	636.8
825.609	648.4
826.007	653.6
826.427	638.4
826.826	651
827.246	656.2
827.644	643.4
828.043	677.2
828.463	660.6
828.862	664.4
829.261	662.8
829.682	645.6
830.081	664
830.502	651.2
830.901	656
831.301	646.2
831.722	648.4
832.121	662.2
832.521	658
832.943	665.8
833.342	659.6
833.742	655.8
834.164	659
834.564	646.8
834.965	663.2
835.386	652
835.787	654.2
836.188	656.6
836.588	657.2
837.01	660.6
837.411	644.4
837.812	671.8
838.213	659.6
838.636	656.4
839.037	728.8
839.438	659.6
839.84	659.4
840.263	670.2
840.664	669.8
841.066	649.4
841.468	661
841.891	653.6
842.293	665
842.695	655.2
843.098	675.4
843.5	655.2
843.902	661
844.326	665.4
844.729	653.8
845.131	673.6
845.534	657.6
845.937	669.6
846.34	683.8
846.764	651.6
847.167	668
847.571	643.4
847.974	653
848.377	650.4
848.781	714.8
849.184	670.4
849.588	655.4
849.992	655
850.396	656.2
850.821	677.4
851.225	658.4
851.63	658
852.034	674.6
852.438	644.8
852.843	693.4
853.247	649
853.652	645.8
854.057	674.8
854.462	659.4
854.867	656.6
855.272	696.4
855.677	654.6
856.082	661
856.487	636.8
856.893	664.2
857.298	659.2
857.704	653
858.11	660.4
858.516	679.2
858.922	650.2
859.328	657.6
859.734	655.8
860.14	666
860.525	659
860.931	648
861.338	654.8
861.745	666
862.151	665.6
862.558	661.2
862.965	651.4
863.372	651.2
863.779	654.2
864.186	673.6
864.572	670
864.98	673.2
865.387	695.4
865.795	652.6
866.203	666.2
866.61	645.2
867.018	664.2
867.405	664.2
867.813	654.8
868.221	660.2
868.63	653
869.038	664
869.425	709.8
869.834	662.2
870.243	644
870.652	654.4
871.039	662.6
871.448	660
871.857	661.2
872.266	659.4
872.654	663.8
873.064	650.4
873.473	671.4
873.883	652.8
874.271	659.2
874.681	669.4
875.091	646.2
875.48	672.6
875.89	682.8
876.3	654.8
876.689	635.6
877.1	652.2
877.51	656.4
877.9	680.4
878.31	650.4
878.721	675.6
879.111	663.4
879.522	645.6
879.933	639.2
880.323	647.2
880.734	651.2
881.125	656.4
881.536	651.2
881.948	656.8
882.338	657.2
882.75	667.6
883.141	652.6
883.553	663.2
883.944	680.2
884.356	662.4
884.769	653.6
885.16	659
885.573	656.4
885.964	647.8
886.377	661.4
886.768	642
887.181	653.6
887.573	646.4
887.987	664
888.378	669.8
888.792	654
889.184	710.2
889.598	656.8
889.99	666
890.383	656.2
890.797	644.2
891.19	674.8
891.604	646.4
891.997	640.2
892.411	650
892.805	634.4
893.198	653.2
893.613	635.2
894.006	652.8
894.421	648.4
894.815	658
895.209	647.6
895.624	710.8
896.018	673
896.412	647.4
896.828	659.6
897.222	658.8
897.617	658.6
898.033	668.8
898.427	659
898.822	656.2
899.239	651
899.634	642.8
900.029	671.8
900.424	647.2
900.841	642.2
901.236	659
901.632	665.8
902.027	716.6
902.445	654.4
902.841	661.2
903.237	643.6
903.633	665.6
904.05	655.8
904.447	661.2
904.843	666.4
905.24	656
905.636	647.2
906.033	651.6
906.451	671
906.848	640.4
907.246	655.4
907.643	662.4
908.04	663.2
908.438	670.6
908.835	667.4
909.254	651.2
909.652	654.4
910.05	648.2
910.448	642.2
910.846	664
911.244	644.4
911.643	658.2
912.041	652
912.44	661.6
912.839	634
913.237	646.6
913.636	653.8
914.035	656.4
914.434	652.2
914.834	669.4
915.233	651.6
915.633	651.2
916.032	645.2
916.432	652.4
916.832	673.8
917.232	651
917.632	641.8
918.032	652.8
918.432	649.6
918.833	650.4
919.233	650.6
919.634	639.8
920.035	668.2
920.436	651.4
920.837	660
921.238	657.6
921.639	640.4
922.019	656
922.42	662.8
922.822	659
923.224	652.8
923.625	645.6
924.027	661.8
924.429	674.8
924.81	661
925.212	663.2
925.615	659.8
926.017	652.2
926.42	656.8
926.801	663.4
927.204	657
927.607	665.6
928.01	669
928.413	655.6
928.795	636
929.199	656.8
929.602	650.6
930.006	651.4
930.388	645.8
930.792	658.4
931.196	646.8
931.579	692.2
931.983	642.4
932.388	708.6
932.771	652.2
933.176	643.4
933.58	654.4
933.964	655.8
934.369	644.4
934.774	655.8
935.158	655.6
935.563	658.2
935.947	656.6
936.353	655.8
936.759	661.2
937.143	651.2
937.549	655.2
937.934	667.2
938.34	678.2
938.746	648
939.131	644.6
939.538	648.8
939.923	653.4
940.33	646.8
940.716	655.8
941.123	665
941.508	661.8
941.916	666
942.302	652.8
942.709	636.8
943.096	640.8
943.503	655.6
943.89	647.4
944.298	652
944.685	683
945.072	643.4
945.48	670.4
945.867	646.4
946.276	644.2
946.663	669.4
947.051	673
947.46	647.8
947.848	657.8
948.257	636.8
948.645	656.2
949.033	642.8
949.443	645.2
949.831	702.8
950.22	636.6
950.63	656.8
951.018	689.2
951.407	656.8
951.796	644
952.207	656.2
952.596	663
952.985	639.2
953.375	709.4
953.786	656
954.176	649.4
954.566	669
954.956	638.4
955.367	647.2
955.758	681.2
956.148	648.4
956.539	657.8
956.929	649.2
957.341	640.8
957.732	640
958.123	664.6
958.515	645.6
958.906	669.8
959.297	655
959.689	654.4
960.102	641.2
960.494	660.6
960.886	652.8
961.278	642.2
961.67	677.6
962.062	691.2
962.455	654.8
962.847	642.8
963.24	651.6
963.633	658.6
964.026	641.6
964.419	651.4
964.812	671.2
965.206	657
965.599	655.6
965.993	650
966.386	649.6
966.78	663.6
967.174	657.8
967.569	649.4
967.963	648.8
968.357	636.4
968.752	646.2
969.146	646.8
969.541	643.6
969.936	655
970.331	659.8
970.705	650
971.1	649
971.496	664.6
971.892	644
972.287	652.6
972.683	651.2
973.079	646.2
973.454	673.6
973.85	660.4
974.247	665
974.643	678
975.04	658.8
975.415	651.6
975.812	639.2
976.209	660.8
976.607	647.4
976.982	662.8
977.38	675.8
977.778	653.4
978.175	648.2
978.552	655.4
978.95	670.4
979.348	657.6
979.725	702.6
980.123	647.8
980.522	655.8
980.899	656
981.298	645
981.697	644.4
982.075	639.2
982.474	640
982.852	649.6
983.251	657.6
983.651	644
984.029	655.8
984.429	645.4
984.808	632.2
985.208	649
985.609	639.8
985.987	629.8
986.388	644.2
986.768	658.4
987.168	645.2
987.548	653
987.949	658.8
988.329	652.8
988.731	636.4
989.111	654.6
989.491	649.6
989.893	646.8
990.273	658.8
990.676	647.4
991.057	639.6
991.459	651.2
991.84	649.2
992.221	644.8
992.624	675
993.006	655.2
993.388	650.8
993.791	657.8
994.173	669.2
994.576	691.2
994.959	633.4
995.341	645.6
995.724	654.4
996.128	651.6
996.511	655.6
996.894	648.4
997.298	648.8
997.681	656.2
998.065	644.6
998.448	639.6
998.854	665.8
999.237	637
999.621	656.8
1000.01	668.8
1000.39	647.4
1000.8	635.4
1001.18	653.8
1001.56	657.6
1001.95	648.4
1002.33	659.8
1002.72	646.2
1003.13	650.8
1003.51	659
1003.9	642
1004.28	669.8
1004.67	641.4
1005.06	649.6
1005.44	682.2
1005.83	640.8
1006.21	652
1006.6	644.4
1006.99	667.8
1007.37	658.6
1007.76	657.6
1060.12	648.6
1060.51	646.4
1060.89	660.8
1061.28	665
1061.67	660.2
1062.06	654.2
1062.45	653.8
1062.83	645.4
1063.22	655.2
1063.61	692.4
1064	665
1064.39	644.8
1064.78	652.2
1065.14	654.6
1065.53	653.2
1065.92	649.4
1066.31	650
1066.7	655.2
1067.09	671.2
1067.46	661.4
1067.85	650.6
1068.24	643.6
1068.63	662.6
1069.02	647.4
1069.39	657.8
1069.78	643
1070.17	652.2
1070.57	645.4
1070.93	647
1071.33	641.4
1071.72	654.6
1072.11	645.4
1072.48	635.4
1072.87	639.8
1073.26	641.8
1073.64	647.6
1074.03	628.8
1074.4	634.2
1074.79	642.4
1075.19	657.8
1075.56	640.4
1075.95	650.4
1076.34	642.2
1076.72	643.6
1077.11	653
1077.48	665
1077.88	649
1078.25	642.4
1078.64	659.4
1079.02	660.6
1079.41	661.6
1079.78	649.2
1080.18	638
1080.55	722
1080.95	639.8
1081.32	642
1081.72	661
1082.09	650.2
1082.49	637.4
1082.86	656.4
1083.24	636.8
1083.63	637.8
1084.01	656.8
1084.38	656.8
1084.78	631.6
1085.16	650
1085.55	653.6
1085.93	667.4
1086.31	636.8
1086.7	684.2
1087.08	656.4
1087.46	657.6
1087.83	644
1088.23	656.8
1088.61	644.4
1088.99	660
1089.36	645.8
1089.76	641.4
1090.14	652.8
1090.52	637.6
1090.9	646.2
1091.27	658.2
1091.67	670.6
1092.05	645.4
1092.43	642.4
1092.81	671.2
1093.19	653.2
1093.57	641.6
1093.95	655.4
1094.35	659.2
1094.73	659.6
1095.11	642.8
1095.49	645.8
1095.87	641.6
1096.25	662.2
1096.63	650.6
1097.01	646
1097.39	658.4
1097.77	643.8
1098.15	642.8
1098.53	637.8
1098.91	646.4
1099.29	652.4
1099.68	670.8
1100.06	658.6
1100.44	638.6
1100.82	651.8
1101.18	661
1101.56	649
1101.95	655.4
1102.33	648.4
1102.71	657.2
1103.1	636.6
1103.48	635
1103.86	632.6
1104.22	650.6
1104.61	638.6
1104.99	641.2
1105.38	646.4
1105.76	645.8
1106.12	644.2
1106.51	696.8
1106.89	662.2
1107.26	655.2
1107.64	654.8
1108.03	650.4
1108.41	646
1108.78	654
1109.16	643.8
1109.55	663.2
1109.91	633
1110.3	632.6
1110.69	662.4
1111.05	643.8
1111.44	642.2
1111.8	655.2
1112.19	655.8
1112.58	656.6
1112.94	643.8
1113.33	644.8
1113.7	637.8
1114.09	634
1114.45	641.2
1114.84	653.2
1115.21	660.4
1115.6	652.8
1115.96	658.6
1116.35	664.2
1116.72	650
1117.11	665.8
1117.48	643.4
1117.85	643.8
1118.24	669.6
1118.6	652.8
1118.99	644.8
1119.36	653.2
1119.73	651.8
1120.12	659.4
1120.49	631.4
1120.86	654.8
1121.25	645.2
1121.62	641.6
1121.99	641.8
1122.38	664.8
1122.76	650.8
1123.13	639.6
1123.5	656.6
1123.89	665.6
1124.26	633
1124.63	643.6
1125	649
1125.4	635.6
1125.77	626.2
1126.14	627
1126.51	651
1126.88	645.6
1127.26	649.2
1127.63	632.6
1128.02	648.6
1128.4	646.2
1128.77	647
1129.14	644.6
1129.52	639.2
1129.89	647.4
1130.26	639.4
1130.64	630.8
1131.01	636.6
