#lambda/nm	C1
208.295	535.8
208.67	488.6
209.045	451
209.419	451
209.794	682.2
210.169	657
210.544	800
210.919	692.2
211.295	671.2
211.67	680.8
212.045	679.2
212.421	673.2
212.796	721.6
213.172	680.6
213.547	681.2
213.923	680.8
214.299	675.6
214.675	687.6
215.051	692.2
215.427	693.8
215.803	699.8
216.179	691.8
216.555	672.2
216.932	700.6
217.308	682.8
217.684	685.8
218.061	695.2
218.438	689.4
218.814	683.6
219.191	690
219.568	673.8
219.945	680.6
220.322	690.8
220.699	692
221.076	697.6
221.453	690.8
221.83	679.4
222.208	676.8
222.585	677
222.962	686.6
223.34	691
223.717	687.2
224.095	685.8
224.473	695
224.851	684.4
225.229	683.4
225.607	707.4
225.985	678.6
226.363	690.8
226.741	694.4
227.119	686.6
227.497	690.2
227.876	672.6
228.254	689.8
228.633	692.6
229.011	686.8
229.39	693.4
229.769	687.6
230.148	695.8
230.527	703.8
230.905	692.4
231.284	688
231.664	675.8
232.043	700.8
232.422	691.6
232.801	682.4
233.181	680.6
233.56	673.8
233.94	688.2
234.319	667.4
234.699	681.8
235.079	729.8
235.458	724.4
235.838	701
236.218	671.2
236.598	669.8
236.978	680.8
237.358	681.2
237.738	675
238.119	693.2
238.499	669.2
238.88	684
239.26	702.4
239.641	667.6
240.021	686.6
240.402	694.4
240.783	674.6
241.163	682.6
241.544	680.2
241.925	683.6
242.306	696.4
242.687	676
243.069	679.4
243.45	700.4
243.831	676.2
244.212	671.2
244.594	727.6
244.975	690.4
245.357	678.6
245.739	671.8
246.12	687
246.502	704.2
246.884	681.2
247.266	683.2
247.648	689.6
248.03	710.6
248.412	692
248.794	700.4
249.176	683.8
249.559	698.6
249.941	680.4
250.323	675
250.706	671.8
251.089	683.4
251.471	682
251.854	685
252.237	678.6
252.62	689.8
253.002	686.2
253.385	687.6
253.769	710.8
254.152	685.4
254.535	687.4
254.918	683.8
255.301	680.4
255.685	689.2
256.068	675.8
256.452	718
256.835	696
257.219	693.6
257.603	702
257.986	681.8
258.37	698
258.754	681.4
259.138	696.8
259.522	699.4
259.906	683
260.29	695.4
260.675	683.2
261.059	693.8
261.443	684.6
261.828	695.6
262.212	694.6
262.597	668.6
262.981	680.4
263.366	693.6
263.751	680.2
264.136	678
264.521	684.2
264.906	685
265.291	689.8
265.676	683.4
266.061	691.4
266.446	705.6
266.831	678.4
267.217	706.4
267.602	688.4
267.987	685.4
268.373	680.2
268.759	703.2
269.144	698.8
269.53	697
269.916	679.2
270.302	680
270.688	696.8
271.074	682.6
271.46	702.8
271.846	721.4
272.232	687.6
272.618	691.8
273.004	682.8
273.391	702.4
273.777	700.6
274.164	691.2
274.55	708.8
274.937	691.6
275.324	684.6
275.71	693.4
276.097	691.8
276.484	667
276.871	692
277.258	694.8
277.645	678.8
278.032	682.4
278.419	677.6
278.807	699.4
279.194	667.6
279.581	680.2
279.969	693.6
280.356	679.6
280.744	686.2
281.131	715.6
281.519	695.8
281.907	681.2
282.295	682.2
282.682	694.8
283.07	691.6
283.458	699
283.846	698.6
284.235	691.2
284.623	701.4
285.011	671.6
285.399	687.2
285.788	688.8
286.176	675.6
286.565	705.6
286.953	683.8
287.342	682.4
287.731	683.8
288.119	691.2
288.508	680.4
288.897	680.8
289.286	670.4
289.675	688.8
290.064	702
290.453	681.8
290.821	687
291.21	708.4
291.599	686.2
291.989	685.4
292.378	698
292.768	698
293.157	685.8
293.547	695.4
293.936	684
294.326	681.2
294.716	691.8
295.106	685.6
295.496	691.2
295.886	697.2
296.276	693.2
296.666	683.8
297.056	687.4
297.446	668.6
297.836	704.4
298.227	682.4
298.617	689.2
299.008	698.8
299.398	689
299.789	678.2
300.179	707.2
300.57	699.8
300.961	682.8
301.352	680.2
301.742	701.4
302.133	685.6
302.524	690.2
302.915	692.2
303.307	681.4
303.698	694.2
304.089	697.2
304.48	686.6
304.872	703.2
305.263	679.6
305.655	683.6
306.046	684
306.438	693.6
306.829	680.8
307.221	698
307.613	686.6
308.005	691.2
308.397	694.2
308.789	712.2
309.181	720.4
309.573	707.4
309.965	696.8
310.357	684
310.749	698.4
311.142	673.6
311.534	688
311.926	699.4
312.319	682.4
312.711	685.8
313.104	713.6
313.497	693.2
313.889	735.2
314.282	704.2
314.675	722.2
315.068	695.8
315.461	705
315.854	719.6
316.247	695.6
316.64	684
317.033	690.2
317.405	695.2
317.798	684.2
318.192	698.8
318.585	678.8
318.979	691.6
319.372	684.6
319.766	686.4
320.16	697.2
320.553	700.6
320.947	706.8
321.341	678.8
321.735	688.8
322.129	674
322.523	715
322.917	680.8
323.311	707.4
323.705	690.2
324.099	697.2
324.494	709
324.888	707
325.282	683.4
325.677	697
326.071	699.6
326.466	709.6
326.861	691.2
327.255	700.2
327.65	701.4
328.045	713
328.44	692.6
328.835	692.2
329.23	680
329.625	721.2
330.02	682.4
330.415	709.2
330.81	697.2
331.206	692.8
331.601	691.6
331.996	701
332.37	717.2
332.766	672.2
333.161	719.6
333.557	689.6
333.953	698
334.348	1024.2
334.744	688.6
335.14	685
335.536	687.2
335.932	697.4
336.328	682.6
336.724	701.2
337.12	673.6
337.516	694.8
337.913	686
338.309	700.6
338.705	689.2
339.102	690.6
339.498	683
339.895	708
340.291	679
340.688	696.2
341.085	675.6
341.481	683
341.878	687.8
342.275	713.4
342.672	683.6
343.069	686.4
343.466	679.2
343.842	707
344.239	686.2
344.636	690.6
345.033	674.2
345.431	672.2
345.828	691.6
346.225	681.6
346.623	720.6
347.02	684.4
347.418	698.4
347.816	700.2
348.213	674.8
348.611	701.2
349.009	677.4
349.407	703.4
349.805	669.4
350.203	674.4
350.601	695.2
350.999	684.4
351.397	751.8
351.795	688.4
352.193	700.4
352.57	691.4
352.969	703.4
353.367	675.6
353.766	675
354.164	682.6
354.563	699.4
354.961	678.2
355.36	675.6
355.759	678.6
356.158	670.4
356.557	680
356.956	673.8
357.355	679.6
357.754	692.6
358.153	692.6
358.552	715.2
358.951	682.4
359.35	698.8
359.75	686
360.149	682.4
360.527	672.4
360.926	670.8
361.326	687.4
361.726	676.8
362.125	679
362.525	695
362.925	692.8
363.325	682.6
363.724	686.4
364.124	679.2
364.524	679.4
364.924	685.4
365.324	691.4
365.725	669.4
366.125	684.4
366.525	691.4
366.904	674.6
367.304	660
367.705	706
368.105	690.8
368.506	678.8
368.906	671.8
369.307	683.8
369.708	689
370.108	671.2
370.509	686
370.91	674.4
371.311	681.4
371.712	687.4
372.113	681.6
372.514	667.4
372.894	682.8
373.295	671.2
373.696	690.8
374.097	697
374.499	720.4
374.9	684.4
375.301	674.4
375.703	688
376.105	665
376.506	678.2
376.908	691.6
377.309	686.6
377.711	686
378.113	676.4
378.493	680.8
378.895	681.8
379.297	704
379.699	674
380.102	684.8
380.504	682
380.906	674.4
381.308	713.4
381.71	683.2
382.113	692.2
382.515	677.8
382.918	681.4
383.299	673.6
383.701	686.4
384.104	677.8
384.507	668.6
384.909	677.8
385.312	667.2
385.715	668.6
386.118	676.6
386.521	677.6
386.924	689.8
387.327	674.2
387.709	659.8
388.112	658.8
388.515	678
388.918	678.4
389.322	688.4
389.725	680.2
390.129	705
390.532	684.6
390.936	677.6
391.339	672.2
391.743	680
392.125	670
392.529	690.4
392.933	701.4
393.337	681.8
393.74	684.8
394.144	691
394.548	674.6
394.953	676.4
395.357	689
395.761	690.4
396.144	680
396.548	681.6
396.952	677.4
397.357	688.6
397.761	681
398.166	678.4
398.57	677.8
398.975	675.2
399.379	679.8
399.763	736.2
400.168	679.4
400.572	672
400.977	668
401.382	703
401.787	697.8
402.192	703.6
402.597	690.2
403.002	670.4
403.386	695
403.791	703.6
404.197	676.6
404.602	685.8
405.007	675.6
405.413	674.8
405.818	682.4
406.224	676.2
406.608	678.2
407.014	680.2
407.42	701.6
407.825	677.6
408.231	690.2
408.637	675.6
409.043	695
409.449	674
409.834	672.8
410.24	678.4
410.646	690.6
411.052	693
411.458	684.6
411.865	701
412.271	689.4
412.677	680.6
413.062	679.2
413.469	675.6
413.875	716.6
414.282	690.4
414.689	684.8
415.095	687.6
415.502	679.2
415.888	680.6
416.294	669.6
416.701	734.6
417.108	674.2
417.515	690.2
417.923	679.6
418.33	711
418.715	694
419.123	678.4
419.53	678.6
419.937	684
420.345	689.2
420.752	677.2
421.16	693.4
421.546	675
421.953	682.8
422.361	677.6
422.769	674
423.177	671.4
423.585	719.4
423.992	710.2
424.379	707.4
424.787	693.8
425.195	699.6
425.603	680.2
426.011	688
426.419	700.4
426.806	683.6
427.214	695.8
427.623	691.2
428.031	712.2
428.44	692.6
428.848	690.6
429.235	699.8
429.644	687.8
430.053	691.4
430.461	705
430.87	718
431.279	693.8
431.666	683.2
432.075	684.6
432.484	689.6
432.893	682.2
433.302	705
433.711	746.6
434.099	684.2
434.508	686.8
434.918	669
435.327	692.6
435.737	685.6
436.125	686.6
436.534	693.4
436.944	690.2
437.353	692.8
437.763	703.2
438.173	674.4
438.561	687.6
438.971	673.2
439.381	682.6
439.791	682.6
440.201	663.4
440.589	683.2
440.999	684.8
441.409	688.8
441.819	667.4
442.23	692.2
442.619	697.2
443.029	682
443.439	678
443.85	692.8
444.26	697.8
444.649	685.8
445.06	685.2
445.471	673.8
445.881	676
446.292	694.4
446.682	701.6
447.092	665.2
447.503	737
447.914	675.8
448.325	679.4
448.715	689.8
449.126	664.4
449.537	678.4
449.948	671
450.338	678
450.75	685
451.161	676.6
451.572	676.8
451.984	672.6
452.374	665
452.786	669.6
453.197	683.8
453.609	681.6
453.999	656
454.411	672.8
454.823	695.2
455.235	681.8
455.647	669.8
456.037	688.4
456.449	662.8
456.862	674.6
457.274	680.6
457.665	677.4
458.077	678.8
458.489	710.6
458.902	672.8
459.293	679.2
459.705	679.4
460.118	665.6
460.53	676.8
460.921	680.8
461.334	676.8
461.747	675.2
462.16	699.2
462.551	698.8
462.964	692.4
463.377	662.8
463.79	674
464.182	691.4
464.595	666.2
465.008	675.6
465.421	684.4
465.813	671.2
466.226	679
466.64	671.6
467.053	729.8
467.445	698.4
467.859	703.8
468.272	684.4
468.686	696.4
469.078	681.2
469.492	661.4
469.906	674
470.298	684.4
470.712	667.8
471.126	741.6
471.54	660.4
471.933	661.2
472.347	675.8
472.761	662.4
473.175	671
473.568	668.6
473.982	649.8
474.397	672.2
474.79	674
475.204	674
475.619	664
476.033	675.4
476.426	670.8
476.841	670
477.256	705.2
477.649	673
478.064	656.2
478.479	661
478.872	664.8
479.287	654
479.702	669.8
480.118	666.4
480.511	667.2
480.927	672.6
481.342	665.8
481.736	670.2
482.151	667
482.566	683
482.96	678.4
483.376	686.2
483.792	667.2
484.186	674.2
484.602	673.6
485.017	672
485.412	675
485.827	680
486.243	674.6
486.638	702.8
487.054	685.4
487.47	685
487.865	668
488.281	664.8
488.697	668.2
489.092	660
489.508	663.2
489.925	679.6
490.32	664.8
490.736	681.6
491.153	676.8
491.548	681.2
491.964	680.4
492.381	671.4
492.776	676.8
493.193	684.6
493.61	687.4
494.006	675.4
494.422	680.4
494.84	670.4
495.235	680.4
495.652	663.8
496.069	670.4
496.465	665.6
496.883	664.6
497.3	698.4
497.696	674.2
498.113	679.4
498.509	658.8
498.927	655.8
499.344	668.6
499.741	662.2
500.158	678.6
500.576	691.2
500.973	674.8
501.39	663
501.787	659.8
502.205	669.6
502.623	662.4
503.02	651.2
503.438	664.4
503.856	666
504.253	675.6
504.671	665.6
505.068	661.6
505.486	670
505.905	684
506.302	666.6
506.72	682.6
507.118	661.2
507.536	672.2
507.955	663.4
508.352	675.6
508.771	678.4
509.169	675
509.587	667
510.006	663.2
510.404	653.8
510.823	657
511.221	663.8
511.64	660.4
512.038	687
512.457	660
512.877	661.4
513.275	664.2
513.694	668.6
514.092	666.4
514.512	680.8
514.91	672.2
515.33	674.2
515.749	673.8
516.148	669.6
516.568	681.4
516.966	672.4
517.386	657.6
517.785	654.4
518.205	665.4
518.603	661
519.024	660.2
519.444	676.8
519.843	676.2
520.263	677.8
520.662	675.4
521.082	670
521.481	670
521.902	670.4
522.301	671.6
522.722	663
523.121	667.2
523.542	666.2
523.963	667.8
524.362	673
524.783	674.2
525.183	660.6
525.604	674
526.003	665
526.425	656
526.824	671.2
527.246	681
527.646	679
528.067	670.6
528.467	667.6
528.888	676
529.289	663
529.71	671.8
530.11	666.4
530.532	662.6
530.932	665.4
531.354	656.4
531.755	705.2
532.176	681.6
532.577	672.4
532.999	664.6
533.4	665.6
533.822	683.6
534.223	679.2
534.645	665.2
535.046	671
535.468	665.4
535.869	691.8
536.292	660.2
536.693	712.2
537.115	667.4
537.516	669.6
537.939	662.2
538.34	680.2
538.742	687.4
539.165	671
539.566	671.2
539.989	659.6
540.391	676.2
540.814	669.4
541.216	672
541.639	667.2
542.041	679.6
542.464	656.4
542.866	660.8
543.268	656.4
543.691	667.8
544.093	670.8
544.517	698
544.919	656.4
545.343	689.8
545.745	657.6
546.147	667.2
546.571	660
546.974	657
547.398	666
547.8	684.2
548.224	662.6
548.627	659.6
549.03	666.4
549.454	653
549.857	651.4
550.281	657.2
550.684	663.4
551.087	683
551.512	670.4
551.915	682.6
552.34	667.6
552.743	658
553.146	667.8
553.571	663.2
553.975	683.6
554.399	656.8
554.803	728.4
555.207	666.6
555.632	655.4
556.036	662.4
556.461	660.2
556.865	663
557.268	663.6
557.694	665.6
558.098	676.2
558.502	663.8
558.927	662.4
559.332	675.6
559.736	665.8
560.162	682.2
560.566	665.8
560.992	673
561.396	663.2
561.801	661
562.227	668.4
562.631	658.2
563.036	667.8
563.462	675.4
563.867	669
564.272	656.2
564.698	666
565.103	651
565.508	692.6
565.935	660.8
566.34	668.4
566.745	676.2
567.172	663.8
567.577	682
567.982	674.2
568.409	669.4
568.815	647.8
569.22	666
569.626	684.4
570.053	653.6
570.459	675.6
570.865	681.4
571.292	672.6
571.698	673.8
572.104	654.2
572.531	662.4
572.937	678.2
573.343	657.2
573.75	660.2
574.177	663
574.583	672.2
574.99	663.4
575.396	677.8
575.824	660.6
576.231	674.4
576.637	656.6
577.065	698.2
577.472	663.8
577.879	658.4
578.286	686.4
578.714	655.4
579.121	659.2
579.528	677.8
579.935	677.4
580.364	670
580.771	657.4
581.178	661.2
581.585	668.8
582.014	673.4
582.421	660.8
582.829	662.2
583.236	673.8
583.644	656.2
584.073	657.8
584.481	663
584.889	659
585.296	663.8
585.726	669.4
586.134	668.4
586.542	661.8
586.95	696.6
587.358	649
587.787	666.4
588.196	652.6
588.604	658.2
589.012	657.6
589.421	655.2
589.851	657.4
590.259	670.4
590.668	664.2
591.076	709.6
591.485	645.4
591.894	670.2
592.324	683.2
592.733	672.4
593.142	653
593.551	657.8
593.96	667.8
594.369	654.4
594.8	651.8
595.209	665
595.618	652.4
596.028	665
596.437	649.2
596.847	666.6
597.256	661
597.687	659.4
598.097	673.4
598.507	646.2
598.917	668.6
599.327	665.6
599.736	662
600.146	678.4
600.556	674.4
600.988	676.2
601.398	653
601.808	682.4
602.219	650.8
602.629	661.2
603.039	663
603.45	691.4
603.86	664.4
604.271	682
604.703	667.2
605.114	657.6
605.525	670.4
605.935	670.8
606.346	702
606.757	674.4
607.168	666
607.579	657.6
607.99	678.6
608.402	664
608.813	673.4
609.224	656.2
609.636	653
610.047	651.6
610.48	662
610.892	676.4
611.303	676.8
611.715	664.4
612.127	647.2
612.539	656
612.95	664
613.362	635.8
613.774	659.4
614.186	664.4
614.599	658.6
615.011	672.2
615.423	663.4
615.835	661.8
616.248	650
616.66	670.4
617.073	656
617.485	653.2
617.898	666.4
618.311	667.8
618.723	657.4
619.136	701.6
619.549	661.4
619.962	684.8
620.375	662.4
620.788	667.4
621.201	649.8
621.614	668.2
622.028	657.8
622.441	655.2
622.854	670.4
623.268	653.6
623.681	675.2
624.095	667
624.509	665
624.922	668.4
625.336	654
625.728	659.2
626.142	676.8
626.556	685.4
626.97	664
627.384	654.8
627.799	659.4
628.213	672.4
628.627	661
629.041	658.6
629.456	645.6
629.87	660
630.285	666.2
630.699	669
631.093	655.8
631.507	663.2
631.922	673.6
632.337	671.8
632.752	647.6
633.167	662.8
633.582	666.8
633.997	658.2
634.412	649.2
634.806	661.4
635.221	655.2
635.637	674.2
636.052	649.4
636.468	664
636.883	676.6
637.299	667
637.715	641
638.109	655
638.525	644
638.941	676.6
639.357	672.4
639.773	673.4
640.189	655.4
640.584	663.4
641	660.6
641.416	650.6
641.832	661
642.249	656.2
642.665	660.8
643.06	665.4
643.477	664.6
643.894	654.2
644.31	655.2
644.727	657.4
645.123	656.4
645.54	654
645.957	652
646.374	678.4
646.77	658.2
647.187	693.8
647.604	663.8
648.021	655.8
648.439	660.4
648.835	658.2
649.252	659.8
649.67	651.2
650.088	655.6
650.484	661.8
650.902	665.2
651.32	667.2
651.738	660.8
652.134	663.2
652.552	686
652.971	666.4
653.389	663.2
653.786	681.2
654.204	694.4
654.622	652.4
655.019	660
655.438	672.4
655.857	664.6
656.275	660.4
656.673	658.6
657.091	744.4
657.51	654.6
657.908	655.8
658.327	672.6
658.746	639.2
659.144	662.2
659.563	676
659.982	663.4
660.38	649.8
660.8	659.2
661.219	659.6
661.617	661.6
662.037	655.2
662.457	671.6
662.855	643.4
663.275	695.2
663.695	662
664.094	655.2
664.514	659.2
664.934	657.4
665.333	662
665.753	656
666.152	647.6
666.572	655
666.993	674.6
667.392	648.6
667.812	657
668.212	657
668.632	669.6
669.053	655
669.453	665.2
669.874	659.8
670.273	659.6
670.694	651
671.116	669.6
671.515	674.6
671.937	659
672.337	657.8
672.758	660
673.158	664.6
673.58	655.8
673.98	663.4
674.402	677.2
674.824	655.2
675.224	657.6
675.646	643.2
676.047	655
676.469	660.4
676.869	665.6
677.292	655.2
677.693	654.4
678.115	667
678.516	669
678.939	656.8
679.34	660.4
679.762	678.4
680.164	670.8
680.586	646.2
680.988	653.6
681.411	695.2
681.812	658
682.236	648.2
682.637	649
683.061	644.4
683.462	662.4
683.864	653.4
684.288	671.8
684.69	646
685.114	670
685.516	679
685.94	649
686.342	665.6
686.766	657.8
687.168	660.6
687.571	678.6
687.995	659
688.398	643
688.822	656.2
689.225	673.6
689.628	682.2
690.052	664.8
690.456	661.4
690.88	671
691.284	654.2
691.687	669.4
692.112	649.8
692.515	646.2
692.919	652.6
693.344	670.2
693.747	655.4
694.173	655
694.577	672
694.98	656
695.406	656.4
695.81	663.4
696.214	658
696.64	666
697.044	663.2
697.448	669.4
697.874	654
698.279	658
698.684	655.6
699.11	652.6
699.514	655
699.919	656.6
700.324	648.4
700.75	659.8
701.156	658
701.561	676.2
701.987	671.2
702.393	672
702.798	671.8
703.203	660.8
703.63	661.8
704.036	661.2
704.442	665.8
704.847	650.8
705.274	650.6
705.68	657.8
706.086	676.4
706.492	647
706.92	657.8
707.326	672
707.732	650.8
708.139	646.4
708.545	654.2
708.973	655.4
709.38	664.8
709.786	645.4
710.193	674.6
710.6	658.4
711.028	646.8
711.435	658.8
711.842	655.4
712.249	660
712.656	653.6
713.064	669.2
713.492	651.4
713.9	641.8
714.307	663.8
714.715	657.2
715.123	659.2
715.53	661.6
715.938	675.8
716.367	658.2
716.775	651.2
717.184	647.2
717.592	653.8
718	668.8
718.408	697.4
718.816	707.8
719.225	666.6
719.633	657.8
720.042	643.2
720.472	652.2
720.881	679.2
721.29	663.8
721.699	647.8
722.108	664.2
722.517	661.4
722.926	652.6
723.335	663.4
723.744	655.4
724.154	653.4
724.563	660.2
724.973	658.4
725.382	667.8
725.792	654.4
726.202	648.2
726.612	677.4
727.022	654
727.432	657.2
779.813	659.2
780.223	710
780.634	660
781.044	651.6
781.454	657.4
781.865	670.4
782.276	648.6
782.686	663.4
783.097	653.2
783.508	656.6
783.919	656.2
784.33	660.8
784.741	671
785.152	647
785.563	642.2
785.974	642.6
786.386	670.2
786.776	659.6
787.188	658.2
787.599	647.6
788.011	667.2
788.423	662.8
788.835	654.2
789.247	655.2
789.659	648
790.071	657.4
790.483	703.6
790.874	649.4
791.286	664.2
791.699	651.8
792.111	649
792.524	661.8
792.937	656.8
793.349	656.4
793.741	648.2
794.154	647.2
794.567	676.4
794.98	656.6
795.393	639
795.785	679.6
796.198	656.8
796.612	662.8
797.026	654.8
797.439	643.6
797.831	657.6
798.245	649.2
798.659	654.4
799.073	647.8
799.487	652.2
799.88	656.6
800.294	655.2
800.708	658
801.123	653.2
801.516	679
801.93	649.2
802.345	641.4
802.76	657
803.153	676.6
803.568	675.2
803.983	660.4
804.377	658.6
804.792	635.8
805.207	638.6
805.601	652.4
806.016	685.8
806.432	649.6
806.826	688.2
807.242	681.4
807.658	650.2
808.052	648.4
808.468	654.8
808.884	647.2
809.279	655.2
809.695	666.4
810.111	671.2
810.506	654.2
810.922	684.4
811.339	641
811.734	660.2
812.151	652.6
812.546	651.8
812.963	646.2
813.38	659.6
813.776	656.2
814.193	673.2
814.589	648
815.006	655.4
815.402	650.4
815.82	644.2
816.237	655.2
816.633	665
817.051	643.8
817.448	653.6
817.866	636.4
818.262	677.6
818.68	656.2
819.077	643.4
819.495	652
819.892	707.6
820.311	643.8
820.708	644.2
821.127	647.4
821.524	663
821.943	653
822.34	683.8
822.759	646.6
823.157	655.2
823.576	669
823.974	658.8
824.393	727.8
824.791	641.6
825.189	647.6
825.609	651.6
826.007	655.6
826.427	641.8
826.826	655.2
827.246	655.6
827.644	631.4
828.043	674.2
828.463	646.2
828.862	670.4
829.261	660.6
829.682	642.6
830.081	666
830.502	641
830.901	660.6
831.301	652
831.722	642.8
832.121	647.2
832.521	649.4
832.943	655.6
833.342	657.6
833.742	650.8
834.164	652.6
834.564	649.8
834.965	650.2
835.386	648
835.787	654.6
836.188	646.4
836.588	653.2
837.01	645.8
837.411	641.6
837.812	666.2
838.213	662.4
838.636	643.4
839.037	728.6
839.438	657.6
839.84	653.4
840.263	663.6
840.664	660
841.066	660.6
841.468	655.6
841.891	649.2
842.293	667.8
842.695	668
843.098	661.6
843.5	647.4
843.902	661.4
844.326	665
844.729	646.8
845.131	663.8
845.534	656.6
845.937	680.8
846.34	672.6
846.764	652.2
847.167	653.2
847.571	650.6
847.974	649
848.377	653.6
848.781	709
849.184	666
849.588	649.4
849.992	650.2
850.396	660
850.821	677.4
851.225	652.2
851.63	643.6
852.034	678.8
852.438	655.4
852.843	791
853.247	644.6
853.652	644
854.057	674
854.462	652.8
854.867	659
855.272	683.4
855.677	666.4
856.082	637.6
856.487	653.8
856.893	651.6
857.298	655
857.704	647.6
858.11	656.8
858.516	655.2
858.922	655.2
859.328	660.6
859.734	648.6
860.14	663.8
860.525	657.6
860.931	640
861.338	651.4
861.745	661.2
862.151	668.6
862.558	659.4
862.965	654.2
863.372	646.8
863.779	645.6
864.186	669
864.572	654.8
864.98	678.2
865.387	685.6
865.795	643.6
866.203	656.6
866.61	639.8
867.018	657.8
867.405	661
867.813	651.8
868.221	653.2
868.63	648.6
869.038	666.2
869.425	693.8
869.834	649.4
870.243	644.2
870.652	640.2
871.039	648.6
871.448	654.2
871.857	652.6
872.266	654
872.654	657.8
873.064	647.6
873.473	673.6
873.883	644.4
874.271	642.2
874.681	666.8
875.091	632
875.48	648.6
875.89	676.4
876.3	642
876.689	631.4
877.1	651.8
877.51	656.6
877.9	673.8
878.31	651.6
878.721	692.4
879.111	662.4
879.522	646.6
879.933	639.2
880.323	634.4
880.734	643.6
881.125	654
881.536	648.4
881.948	639
882.338	649
882.75	655.4
883.141	646.4
883.553	649.4
883.944	683.6
884.356	659.2
884.769	650
885.16	649.6
885.573	651.2
885.964	649.6
886.377	651.6
886.768	642.6
887.181	642.2
887.573	647.8
887.987	663.2
888.378	662.2
888.792	655.6
889.184	702.6
889.598	636.8
889.99	650.6
890.383	645
890.797	650.2
891.19	672.2
891.604	643
891.997	634.8
892.411	641.8
892.805	647.2
893.198	641.8
893.613	640.2
894.006	649.4
894.421	650.6
894.815	653.4
895.209	649.2
895.624	696
896.018	674.8
896.412	643.8
896.828	650
897.222	656.6
897.617	645.6
898.033	665.6
898.427	656
898.822	652.8
899.239	642.6
899.634	632.8
900.029	670.4
900.424	649.4
900.841	638.2
901.236	668
901.632	654.4
902.027	711.2
902.445	657.4
902.841	648.8
903.237	649.8
903.633	668.6
904.05	658
904.447	652.2
904.843	666
905.24	650
905.636	637.2
906.033	649.8
906.451	671.2
906.848	642.4
907.246	649
907.643	647.6
908.04	652
908.438	669.2
908.835	656.4
909.254	645.4
909.652	656.4
910.05	643.4
910.448	641.8
910.846	662.4
911.244	634.6
911.643	653.2
912.041	648
912.44	669.6
912.839	640.6
913.237	641.2
913.636	636.4
914.035	662.2
914.434	647.8
914.834	654.8
915.233	663.2
915.633	640.4
916.032	648.2
916.432	641.2
916.832	669.2
917.232	651
917.632	639.8
918.032	654.4
918.432	651.4
918.833	643.4
919.233	651
919.634	639.8
920.035	662.4
920.436	641.4
920.837	654
921.238	648.6
921.639	654.4
922.019	651.2
922.42	649.6
922.822	658.4
923.224	650.2
923.625	636.4
924.027	648.6
924.429	666.4
924.81	654
925.212	655.8
925.615	646.8
926.017	655.6
926.42	664.8
926.801	655.6
927.204	647.4
927.607	655.4
928.01	663.2
928.413	654.8
928.795	633.2
929.199	653.2
929.602	654.4
930.006	641.2
930.388	636.8
930.792	654.6
931.196	644.8
931.579	691.8
931.983	640
932.388	698.8
932.771	653.8
933.176	635.2
933.58	645.4
933.964	654.4
934.369	628.2
934.774	650.4
935.158	646.2
935.563	646.2
935.947	657.8
936.353	657.8
936.759	645.6
937.143	656.6
937.549	653.8
937.934	663
938.34	673
938.746	648.4
939.131	653.8
939.538	643.6
939.923	662.2
940.33	645.4
940.716	653.6
941.123	655.4
941.508	662.8
941.916	670.8
942.302	652.8
942.709	645.8
943.096	644.2
943.503	658.6
943.89	653.2
944.298	642
944.685	681
945.072	651.8
945.48	670.4
945.867	645.8
946.276	652.2
946.663	679.8
947.051	675.6
947.46	658.4
947.848	652
948.257	641.8
948.645	652
949.033	643.4
949.443	645.2
949.831	701.6
950.22	642.4
950.63	657.4
951.018	689
951.407	644.6
951.796	643
952.207	650.4
952.596	657.8
952.985	646.4
953.375	689.2
953.786	645.2
954.176	640.4
954.566	658
954.956	642.4
955.367	645.8
955.758	673.2
956.148	636.4
956.539	655
956.929	644.8
957.341	640.4
957.732	644.4
958.123	659.2
958.515	632.8
958.906	664.2
959.297	647
959.689	639.4
960.102	642.8
960.494	646
960.886	644.6
961.278	642.8
961.67	674.4
962.062	688.4
962.455	648.4
962.847	643
963.24	648.4
963.633	653.4
964.026	641.2
964.419	649.2
964.812	654.8
965.206	639.8
965.599	642.8
965.993	649.8
966.386	645.8
966.78	662.2
967.174	660.6
967.569	643.2
967.963	643.2
968.357	640.6
968.752	631.4
969.146	641.6
969.541	640.6
969.936	644.4
970.331	655.6
970.705	655
971.1	651
971.496	658
971.892	636
972.287	647.2
972.683	646.6
973.079	640
973.454	653.4
973.85	650.2
974.247	655.8
974.643	676.8
975.04	645
975.415	637.8
975.812	645
976.209	642
976.607	637.6
976.982	657.4
977.38	669.2
977.778	644.6
978.175	638.6
978.552	649.6
978.95	659.4
979.348	652
979.725	702.8
980.123	650.4
980.522	649
980.899	641.6
981.298	640.8
981.697	647.6
982.075	646.8
982.474	637
982.852	651.4
983.251	655
983.651	652
984.029	654.4
984.429	652.2
984.808	636.8
985.208	635.6
985.609	638.2
985.987	636
986.388	633.6
986.768	646.8
987.168	641.2
987.548	663.2
987.949	659.6
988.329	645.8
988.731	635.4
989.111	639.6
989.491	646.4
989.893	642.2
990.273	652.6
990.676	642.2
991.057	642.4
991.459	645.2
991.84	647.8
992.221	636
992.624	663.6
993.006	654.2
993.388	646
993.791	652.2
994.173	653.8
994.576	689.4
994.959	640.6
995.341	636.4
995.724	642.8
996.128	652.6
996.511	652.8
996.894	648
997.298	640.4
997.681	660.4
998.065	648.2
998.448	646.4
998.854	652.8
999.237	635.2
999.621	664
1000.01	671.6
1000.39	652.6
1000.8	648
1001.18	656.6
1001.56	659
1001.95	651.8
1002.33	659.6
1002.72	637.6
1003.13	641.6
1003.51	650.2
1003.9	642
1004.28	660.4
1004.67	643.4
1005.06	653
1005.44	685.2
1005.83	630.6
1006.21	641.6
1006.6	643.4
1006.99	650.4
1007.37	654
1007.76	648.4
1060.12	651.2
1060.51	647.6
1060.89	648.4
1061.28	664.6
1061.67	662
1062.06	652.8
1062.45	644.2
1062.83	642.8
1063.22	654.2
1063.61	688.6
1064	653.2
1064.39	649
1064.78	650
1065.14	654.2
1065.53	647.6
1065.92	647
1066.31	640.2
1066.7	645.8
1067.09	662
1067.46	651.8
1067.85	640
1068.24	634.8
1068.63	653.6
1069.02	638.8
1069.39	648.4
1069.78	641.8
1070.17	642.8
1070.57	640.2
1070.93	660
1071.33	639.2
1071.72	642
1072.11	644
1072.48	642.6
1072.87	642.2
1073.26	638.4
1073.64	641
1074.03	631.2
1074.4	641.8
1074.79	639.6
1075.19	646.2
1075.56	644.2
1075.95	651.4
1076.34	637.8
1076.72	644.8
1077.11	654.4
1077.48	658.4
1077.88	650.2
1078.25	644.6
1078.64	654.6
1079.02	653.4
1079.41	652.4
1079.78	641.2
1080.18	645.6
1080.55	725.4
1080.95	635.8
1081.32	650
1081.72	641.2
1082.09	651.4
1082.49	633.4
1082.86	645.6
1083.24	639.2
1083.63	632.2
1084.01	646.4
1084.38	651
1084.78	635.2
1085.16	647.8
1085.55	664.6
1085.93	677.8
1086.31	642.4
1086.7	685.8
1087.08	647.6
1087.46	643.6
1087.83	633.6
1088.23	665.8
1088.61	650
1088.99	658.4
1089.36	648.8
1089.76	638.2
1090.14	644.8
1090.52	642.8
1090.9	644.4
1091.27	651.2
1091.67	678.8
1092.05	646.4
1092.43	624.2
1092.81	656.4
1093.19	658
1093.57	641
1093.95	643.4
1094.35	658.6
1094.73	650.8
1095.11	635.6
1095.49	637.6
1095.87	643.4
1096.25	654.6
1096.63	650.4
1097.01	640.4
1097.39	653.8
1097.77	650.6
1098.15	648.2
1098.53	639.6
1098.91	649.2
1099.29	638.2
1099.68	663.8
1100.06	651.6
1100.44	643
1100.82	642.8
1101.18	658.6
1101.56	641.2
1101.95	644
1102.33	646
1102.71	654.2
1103.1	631.4
1103.48	623.2
1103.86	639.2
1104.22	656.6
1104.61	647
1104.99	640.2
1105.38	634.6
1105.76	644.6
1106.12	649.8
1106.51	683.4
1106.89	662.4
1107.26	658.8
1107.64	668.8
1108.03	645.4
1108.41	650.6
1108.78	645
1109.16	643.4
1109.55	654.2
1109.91	635.8
1110.3	633.8
1110.69	665.2
1111.05	650.4
1111.44	643.2
1111.8	649
1112.19	648.2
1112.58	644.4
1112.94	641.6
1113.33	635
1113.7	639.8
1114.09	632.2
1114.45	638.6
1114.84	644.2
1115.21	644.2
1115.6	641.8
1115.96	648.6
1116.35	659.4
1116.72	644.4
1117.11	649.8
1117.48	632.6
1117.85	655.6
1118.24	663.8
1118.6	639.4
1118.99	637.4
1119.36	646.8
1119.73	644
1120.12	644.8
1120.49	643.2
1120.86	653.6
1121.25	645.2
1121.62	628.8
1121.99	638.2
1122.38	650.8
1122.76	648
1123.13	644.2
1123.5	644.8
1123.89	640
1124.26	634
1124.63	635
1125	645.2
1125.4	645
1125.77	642.4
1126.14	629
1126.51	637.4
1126.88	649.4
1127.26	636.4
1127.63	625.4
1128.02	641.2
1128.4	638
1128.77	646.6
1129.14	647
1129.52	641
1129.89	648.6
1130.26	634.6
1130.64	635.2
1131.01	649.2
