#lambda/nm	C1
208.295	537.2
208.67	489.2
209.045	458.2
209.419	458.2
209.794	680.8
210.169	663.8
210.544	805.2
210.919	696.4
211.295	679
211.67	691.2
212.045	686
212.421	681.2
212.796	728.6
213.172	677.2
213.547	673.6
213.923	683.4
214.299	676.4
214.675	696.6
215.051	687.8
215.427	684.8
215.803	709.6
216.179	693.8
216.555	679.4
216.932	689.4
217.308	686.4
217.684	684.4
218.061	683
218.438	688.4
218.814	670.8
219.191	695.4
219.568	677.2
219.945	685.6
220.322	694.6
220.699	694.8
221.076	691
221.453	688.2
221.83	684
222.208	676.4
222.585	685.6
222.962	692.8
223.34	680.4
223.717	684.8
224.095	685.4
224.473	685
224.851	684
225.229	668
225.607	698.8
225.985	668.8
226.363	683
226.741	682.4
227.119	687.8
227.497	694.6
227.876	676
228.254	694
228.633	686.6
229.011	693.8
229.39	692.8
229.769	687
230.148	692
230.527	709.8
230.905	684.2
231.284	692.6
231.664	682.2
232.043	703.8
232.422	693.2
232.801	676.6
233.181	698.8
233.56	683.4
233.94	682
234.319	669.4
234.699	689.8
235.079	740.4
235.458	727.6
235.838	705.6
236.218	677.2
236.598	673.6
236.978	686
237.358	676.2
237.738	677.2
238.119	698.6
238.499	670
238.88	692.4
239.26	700.2
239.641	671.8
240.021	682
240.402	683.2
240.783	684.4
241.163	682.2
241.544	695.4
241.925	687
242.306	708.6
242.687	680.2
243.069	686.4
243.45	697.2
243.831	676
244.212	684.8
244.594	731.6
244.975	698.8
245.357	691.2
245.739	680
246.12	686.2
246.502	708.6
246.884	681
247.266	690
247.648	686
248.03	714.2
248.412	699.4
248.794	701.8
249.176	678.2
249.559	702.2
249.941	683.6
250.323	678.6
250.706	679.6
251.089	690.2
251.471	690
251.854	687.2
252.237	689.2
252.62	688.4
253.002	688.6
253.385	684.6
253.769	699.8
254.152	685
254.535	692
254.918	669.6
255.301	683.4
255.685	675.2
256.068	677.8
256.452	709.2
256.835	694.8
257.219	696.4
257.603	699.2
257.986	668.6
258.37	686.2
258.754	666.4
259.138	701
259.522	695
259.906	688.6
260.29	698.6
260.675	678
261.059	697
261.443	673.8
261.828	693.8
262.212	689.4
262.597	674.4
262.981	684.2
263.366	690
263.751	689.4
264.136	683.4
264.521	675.4
264.906	669.8
265.291	694.2
265.676	683.2
266.061	698.4
266.446	702.4
266.831	685.8
267.217	709.4
267.602	689.6
267.987	686.6
268.373	675.8
268.759	693.6
269.144	695.6
269.53	688.2
269.916	688
270.302	690.6
270.688	696.4
271.074	684.6
271.46	696.4
271.846	723.6
272.232	686.2
272.618	681.6
273.004	682.2
273.391	702.2
273.777	702.4
274.164	691.2
274.55	709.2
274.937	692.6
275.324	682
275.71	691
276.097	695.4
276.484	681.2
276.871	691.2
277.258	685.8
277.645	686.8
278.032	686.8
278.419	687
278.807	693.6
279.194	677.6
279.581	675
279.969	687.4
280.356	695.4
280.744	684
281.131	718.4
281.519	694.6
281.907	670.6
282.295	678
282.682	701.2
283.07	690.4
283.458	700.4
283.846	693.2
284.235	698.8
284.623	696
285.011	677.8
285.399	687.2
285.788	691
286.176	676.2
286.565	706.8
286.953	682.8
287.342	675.2
287.731	678.6
288.119	675.8
288.508	681.6
288.897	687
289.286	675
289.675	682.4
290.064	696.4
290.453	680
290.821	683.6
291.21	698
291.599	673.2
291.989	685
292.378	693
292.768	710.4
293.157	687.6
293.547	693.4
293.936	677.2
294.326	682.8
294.716	687.8
295.106	693.8
295.496	702
295.886	699
296.276	688.8
296.666	683
297.056	683
297.446	678.2
297.836	709
298.227	677.4
298.617	694.8
299.008	705.8
299.398	682.2
299.789	681.8
300.179	695.8
300.57	711.2
300.961	685.6
301.352	679.6
301.742	699
302.133	695
302.524	688.6
302.915	690.4
303.307	678.4
303.698	708
304.089	696
304.48	690.6
304.872	696.2
305.263	689.4
305.655	687.6
306.046	695.6
306.438	695.2
306.829	692.6
307.221	705.8
307.613	701
308.005	702.6
308.397	706
308.789	708
309.181	721.4
309.573	705.6
309.965	703.8
310.357	686.4
310.749	704.2
311.142	679.2
311.534	688.4
311.926	701.6
312.319	693.8
312.711	682.8
313.104	705.4
313.497	687.4
313.889	744.8
314.282	714.8
314.675	713.4
315.068	687.6
315.461	698.4
315.854	727.6
316.247	696.8
316.64	682.6
317.033	693
317.405	699
317.798	690
318.192	695.2
318.585	686.8
318.979	692.2
319.372	690
319.766	693.6
320.16	706.4
320.553	712
320.947	711.4
321.341	684.4
321.735	686.6
322.129	669.6
322.523	710.8
322.917	686.4
323.311	696.6
323.705	700.2
324.099	699.6
324.494	705.8
324.888	714
325.282	695.6
325.677	698.6
326.071	707
326.466	703
326.861	693.4
327.255	699.6
327.65	712.8
328.045	711.8
328.44	694
328.835	692.8
329.23	683.8
329.625	712
330.02	692
330.415	714.6
330.81	695
331.206	693
331.601	687.2
331.996	694.8
332.37	707.6
332.766	678.2
333.161	711
333.557	676.8
333.953	696.4
334.348	1120.4
334.744	684
335.14	685.8
335.536	696.2
335.932	700.6
336.328	689
336.724	707.6
337.12	687
337.516	692.4
337.913	699.4
338.309	713.2
338.705	691.6
339.102	710.6
339.498	686.4
339.895	712.8
340.291	683
340.688	698.8
341.085	681.8
341.481	684.6
341.878	685.6
342.275	714.6
342.672	679.6
343.069	696.8
343.466	680.6
343.842	698.8
344.239	678.8
344.636	686.8
345.033	680.6
345.431	676.8
345.828	688
346.225	685.2
346.623	726.2
347.02	683
347.418	704.2
347.816	708
348.213	674.2
348.611	702
349.009	681.4
349.407	696.4
349.805	681
350.203	678.4
350.601	697.6
350.999	685.8
351.397	763.8
351.795	694.2
352.193	700.2
352.57	691.2
352.969	703.2
353.367	674
353.766	676.4
354.164	689.2
354.563	697.2
354.961	687.4
355.36	687
355.759	685.2
356.158	676.4
356.557	673.6
356.956	668.8
357.355	673.2
357.754	689.8
358.153	697.2
358.552	710.4
358.951	687.8
359.35	702.4
359.75	675.4
360.149	680
360.527	676.6
360.926	677
361.326	686.6
361.726	681.2
362.125	677
362.525	687.2
362.925	685.8
363.325	686.8
363.724	688.4
364.124	681.2
364.524	678.4
364.924	686.6
365.324	698.2
365.725	671.2
366.125	695.8
366.525	678.8
366.904	673.6
367.304	672.4
367.705	710
368.105	691.4
368.506	677.6
368.906	682.6
369.307	686.4
369.708	688.8
370.108	662.8
370.509	688
370.91	677.2
371.311	686.4
371.712	680.4
372.113	683.6
372.514	666.4
372.894	681.8
373.295	679.2
373.696	692.8
374.097	695.4
374.499	711.4
374.9	680
375.301	677.4
375.703	695.2
376.105	674
376.506	686.8
376.908	688.8
377.309	691.8
377.711	682.2
378.113	682.6
378.493	678.2
378.895	679.2
379.297	690.2
379.699	661.8
380.102	686.8
380.504	674.2
380.906	680.6
381.308	709.4
381.71	683.8
382.113	691.2
382.515	675.6
382.918	678.8
383.299	677.6
383.701	695.2
384.104	687.6
384.507	658.2
384.909	680.8
385.312	668.8
385.715	666.8
386.118	670.4
386.521	662.4
386.924	693.8
387.327	673.6
387.709	664.6
388.112	659.2
388.515	673
388.918	679.6
389.322	687.2
389.725	681
390.129	701.2
390.532	688.6
390.936	674.4
391.339	671.6
391.743	684.2
392.125	672.6
392.529	690.2
392.933	695.8
393.337	679
393.74	676.4
394.144	675.4
394.548	671.8
394.953	682.6
395.357	685.6
395.761	667.4
396.144	676.6
396.548	669.4
396.952	679
397.357	677.2
397.761	668.4
398.166	681
398.57	670.6
398.975	669.2
399.379	688
399.763	728.6
400.168	679.2
400.572	680.4
400.977	680.2
401.382	697.6
401.787	698.6
402.192	696.6
402.597	695.8
403.002	669.2
403.386	692
403.791	704.6
404.197	672
404.602	681.4
405.007	679.4
405.413	675.6
405.818	687.4
406.224	675.8
406.608	678.8
407.014	669
407.42	702.4
407.825	681.4
408.231	699.8
408.637	688.2
409.043	698.8
409.449	678
409.834	664.8
410.24	692.8
410.646	694.4
411.052	703.8
411.458	687.8
411.865	693
412.271	696.4
412.677	682.8
413.062	692
413.469	672.4
413.875	710
414.282	691.2
414.689	690.4
415.095	694.2
415.502	673.4
415.888	687.6
416.294	664
416.701	729.4
417.108	684
417.515	704.6
417.923	670.8
418.33	708.2
418.715	685
419.123	683.4
419.53	688.2
419.937	690
420.345	701.4
420.752	679.4
421.16	692.8
421.546	684.8
421.953	693.8
422.361	685.2
422.769	681.2
423.177	669
423.585	709.8
423.992	711.4
424.379	698.8
424.787	696.6
425.195	709
425.603	683.4
426.011	704.8
426.419	697.4
426.806	684.2
427.214	691.8
427.623	698.4
428.031	701.8
428.44	688.8
428.848	702
429.235	713.4
429.644	688.8
430.053	689.2
430.461	713
430.87	714.4
431.279	693.8
431.666	679.2
432.075	692.6
432.484	693.8
432.893	669.8
433.302	707.4
433.711	750.4
434.099	685.6
434.508	673
434.918	675.8
435.327	686.8
435.737	685
436.125	690
436.534	690.6
436.944	681
437.353	685.4
437.763	689.6
438.173	674.2
438.561	700
438.971	677.6
439.381	683.2
439.791	681.8
440.201	666.2
440.589	696.6
440.999	690
441.409	699.4
441.819	672.4
442.23	683.2
442.619	697.8
443.029	685.6
443.439	679.6
443.85	705.2
444.26	699.4
444.649	688.6
445.06	678.6
445.471	677.4
445.881	676.6
446.292	702.4
446.682	705
447.092	669.4
447.503	740.8
447.914	681.8
448.325	684
448.715	686.8
449.126	678.6
449.537	679.6
449.948	685.4
450.338	687.8
450.75	691.8
451.161	679.4
451.572	694.6
451.984	676.6
452.374	656.2
452.786	679.4
453.197	693.8
453.609	689.2
453.999	669.2
454.411	678.8
454.823	698
455.235	688.6
455.647	674.8
456.037	682.2
456.449	669
456.862	683.6
457.274	684.6
457.665	671.6
458.077	683.8
458.489	712.6
458.902	696.4
459.293	679.2
459.705	674
460.118	673.8
460.53	682.4
460.921	673
461.334	682.4
461.747	680.4
462.16	697
462.551	697.6
462.964	682
463.377	671
463.79	682.2
464.182	696.8
464.595	664.8
465.008	681.2
465.421	681.4
465.813	672
466.226	678.8
466.64	671.2
467.053	727.6
467.445	685.6
467.859	692.8
468.272	680
468.686	689
469.078	669
469.492	663.4
469.906	671.8
470.298	680.2
470.712	671.4
471.126	742.4
471.54	663.8
471.933	669.8
472.347	663.4
472.761	674.6
473.175	663.4
473.568	667.6
473.982	667
474.397	668.2
474.79	680
475.204	678
475.619	677
476.033	673.6
476.426	682.6
476.841	670.8
477.256	696.8
477.649	666.4
478.064	662.8
478.479	669
478.872	672.6
479.287	656
479.702	666.8
480.118	676
480.511	676
480.927	673.4
481.342	668
481.736	675.2
482.151	664
482.566	682.6
482.96	678.4
483.376	680
483.792	667.6
484.186	675.2
484.602	676
485.017	675.6
485.412	676.8
485.827	678.8
486.243	675.2
486.638	699.4
487.054	688.8
487.47	676.4
487.865	671.4
488.281	666
488.697	664.8
489.092	672.6
489.508	664.4
489.925	678.8
490.32	666.4
490.736	676.6
491.153	665.4
491.548	677.2
491.964	683
492.381	654.4
492.776	677.4
493.193	673.2
493.61	679.6
494.006	672.2
494.422	685.4
494.84	665.6
495.235	689.6
495.652	676.8
496.069	675.8
496.465	663.6
496.883	675.4
497.3	699
497.696	666.6
498.113	672.4
498.509	656.8
498.927	659
499.344	651.6
499.741	657.8
500.158	673.6
500.576	670.8
500.973	664.2
501.39	652.2
501.787	657.6
502.205	675.6
502.623	663
503.02	652.4
503.438	670.4
503.856	668.8
504.253	675.4
504.671	670.8
505.068	663.6
505.486	670.2
505.905	692.2
506.302	676
506.72	684.8
507.118	669
507.536	671
507.955	669.4
508.352	674.4
508.771	673
509.169	673
509.587	669
510.006	672.4
510.404	665.8
510.823	675
511.221	669.4
511.64	677.8
512.038	686.8
512.457	666.4
512.877	678.2
513.275	667.6
513.694	670.6
514.092	664.6
514.512	678
514.91	666.4
515.33	667.4
515.749	671.8
516.148	672
516.568	671.2
516.966	665.4
517.386	669
517.785	672.8
518.205	675.4
518.603	667
519.024	666.4
519.444	667.8
519.843	681.8
520.263	679.6
520.662	665.6
521.082	665.2
521.481	665.8
521.902	677.4
522.301	676.2
522.722	673.4
523.121	663.4
523.542	667.4
523.963	671.6
524.362	684.4
524.783	675.6
525.183	670
525.604	672
526.003	662.8
526.425	656.8
526.824	670.4
527.246	686
527.646	682
528.067	662.6
528.467	669.6
528.888	673.4
529.289	665.8
529.71	682.8
530.11	662.8
530.532	667.2
530.932	658
531.354	660.2
531.755	709.2
532.176	686.2
532.577	679
532.999	679.2
533.4	670
533.822	682.2
534.223	665.4
534.645	671.8
535.046	667.2
535.468	676.4
535.869	684.8
536.292	669.2
536.693	712
537.115	669.8
537.516	669
537.939	660.2
538.34	682.6
538.742	684.2
539.165	667.4
539.566	673
539.989	664.6
540.391	668.2
540.814	663.8
541.216	674.4
541.639	667.6
542.041	678
542.464	662
542.866	653.8
543.268	652.6
543.691	666.6
544.093	677.2
544.517	681.4
544.919	666.2
545.343	696.4
545.745	655.2
546.147	669.6
546.571	664
546.974	655
547.398	675
547.8	692.8
548.224	662.6
548.627	665
549.03	678.2
549.454	669.4
549.857	655.2
550.281	667
550.684	664.6
551.087	674.6
551.512	667.6
551.915	671.6
552.34	665
552.743	668.6
553.146	662.8
553.571	664
553.975	693.2
554.399	660.2
554.803	725.2
555.207	665.4
555.632	665
556.036	672.6
556.461	666.6
556.865	664.4
557.268	661.8
557.694	667.6
558.098	674.4
558.502	676
558.927	662
559.332	665.2
559.736	665.6
560.162	668
560.566	671.6
560.992	668.2
561.396	671
561.801	668.4
562.227	676.2
562.631	661.2
563.036	670.6
563.462	681
563.867	673.8
564.272	651.8
564.698	677.4
565.103	653.6
565.508	683.6
565.935	663.2
566.34	663.2
566.745	680.2
567.172	668.6
567.577	697.4
567.982	678.6
568.409	674.6
568.815	646.6
569.22	668.4
569.626	678.8
570.053	648.2
570.459	665.2
570.865	668.4
571.292	673
571.698	669.2
572.104	642.8
572.531	665.2
572.937	672.2
573.343	665.4
573.75	657.8
574.177	667.4
574.583	670.2
574.99	661.8
575.396	671.4
575.824	655.8
576.231	666
576.637	655.2
577.065	696.2
577.472	666.4
577.879	650.8
578.286	685
578.714	654.4
579.121	649.8
579.528	675.2
579.935	679.8
580.364	663.2
580.771	644.6
581.178	649.6
581.585	670.8
582.014	670.2
582.421	661.8
582.829	659.4
583.236	679.4
583.644	663.4
584.073	658.6
584.481	670
584.889	651.4
585.296	671.2
585.726	669.6
586.134	660.6
586.542	661.2
586.95	690.4
587.358	654
587.787	668.8
588.196	654.8
588.604	660.4
589.012	672.2
589.421	663.4
589.851	652.8
590.259	668.4
590.668	663.8
591.076	705.6
591.485	653.4
591.894	660.2
592.324	676
592.733	686
593.142	650.6
593.551	652.6
593.96	668.4
594.369	646.4
594.8	643.4
595.209	661.4
595.618	646.8
596.028	655
596.437	656.6
596.847	664.8
597.256	662.4
597.687	671.6
598.097	663.8
598.507	658
598.917	669.8
599.327	668.6
599.736	666.4
600.146	679.6
600.556	666.8
600.988	670.6
601.398	648.6
601.808	670.8
602.219	654.2
602.629	661.8
603.039	666.8
603.45	690.6
603.86	662.2
604.271	670.6
604.703	666.2
605.114	665
605.525	660.8
605.935	669
606.346	686
606.757	664.4
607.168	657.6
607.579	654.4
607.99	686.8
608.402	666.8
608.813	669.2
609.224	654.6
609.636	656.6
610.047	652
610.48	660
610.892	678.6
611.303	677
611.715	657.2
612.127	654
612.539	657.4
612.95	663.6
613.362	653
613.774	652.6
614.186	655.4
614.599	661.8
615.011	674.8
615.423	655.4
615.835	658.2
616.248	653
616.66	667.4
617.073	656.2
617.485	662
617.898	675
618.311	667.2
618.723	655.4
619.136	691.6
619.549	681.4
619.962	682.2
620.375	656.2
620.788	665
621.201	653.2
621.614	664.8
622.028	660.2
622.441	666.6
622.854	668.4
623.268	659.8
623.681	662.4
624.095	672.6
624.509	668.8
624.922	672.2
625.336	653
625.728	674
626.142	667
626.556	686
626.97	673
627.384	663.8
627.799	656.2
628.213	674.8
628.627	664.4
629.041	657.6
629.456	661.2
629.87	656.4
630.285	678.6
630.699	676
631.093	654.8
631.507	664.2
631.922	670.6
632.337	680.8
632.752	664
633.167	658.8
633.582	660.2
633.997	660.4
634.412	642.6
634.806	658.2
635.221	650.2
635.637	676
636.052	652.4
636.468	668.8
636.883	686.4
637.299	650
637.715	649.6
638.109	663.2
638.525	647
638.941	671
639.357	664.2
639.773	670
640.189	660.6
640.584	661
641	662
641.416	647.8
641.832	649.8
642.249	663.8
642.665	659
643.06	663.8
643.477	674.2
643.894	650.2
644.31	665
644.727	654.4
645.123	655.2
645.54	654
645.957	669
646.374	668
646.77	662.2
647.187	694.2
647.604	657.4
648.021	640.6
648.439	650
648.835	654.2
649.252	669
649.67	655.2
650.088	667.2
650.484	670.8
650.902	665.4
651.32	672
651.738	668.4
652.134	662.8
652.552	679.8
652.971	677.2
653.389	665.4
653.786	675.4
654.204	687.4
654.622	656.6
655.019	671.2
655.438	664.8
655.857	661.6
656.275	666.8
656.673	653.6
657.091	744.8
657.51	653.4
657.908	681.6
658.327	679.4
658.746	650.6
659.144	659.6
659.563	685.8
659.982	664.4
660.38	646.6
660.8	660.6
661.219	675.2
661.617	673.6
662.037	658
662.457	678.6
662.855	649.6
663.275	692.8
663.695	668.4
664.094	658.4
664.514	661.6
664.934	650.8
665.333	667.2
665.753	659.4
666.152	650.2
666.572	655.2
666.993	678.4
667.392	664.2
667.812	656.8
668.212	658.8
668.632	672.4
669.053	658
669.453	660
669.874	668.4
670.273	666.4
670.694	657
671.116	680.2
671.515	676.2
671.937	662
672.337	658.8
672.758	650.8
673.158	665.6
673.58	645.8
673.98	660.4
674.402	671.2
674.824	654.4
675.224	645.2
675.646	654
676.047	663
676.469	657.6
676.869	671.8
677.292	657.2
677.693	657.8
678.115	653.4
678.516	664.6
678.939	673
679.34	659.8
679.762	671.2
680.164	665.2
680.586	642.8
680.988	663.4
681.411	685
681.812	662.2
682.236	653
682.637	652.4
683.061	645.6
683.462	662.6
683.864	652.6
684.288	670.4
684.69	648.4
685.114	667.6
685.516	662.4
685.94	655.4
686.342	666.4
686.766	658.8
687.168	653
687.571	684.2
687.995	659.2
688.398	639
688.822	662.8
689.225	676.8
689.628	681.8
690.052	663.4
690.456	661.6
690.88	656.4
691.284	648.8
691.687	666.2
692.112	655.4
692.515	649
692.919	656.4
693.344	666
693.747	661.2
694.173	652.6
694.577	676.6
694.98	658.8
695.406	644
695.81	659.6
696.214	664.2
696.64	655.8
697.044	655.8
697.448	670
697.874	659.6
698.279	656
698.684	649
699.11	650.2
699.514	661.2
699.919	664
700.324	653.8
700.75	653.6
701.156	656.4
701.561	677.4
701.987	664
702.393	668.4
702.798	674.2
703.203	660.2
703.63	654.4
704.036	657.4
704.442	661.6
704.847	648.8
705.274	650.6
705.68	656.6
706.086	665
706.492	642.6
706.92	652.2
707.326	663.2
707.732	646.6
708.139	642.6
708.545	647.2
708.973	653.6
709.38	658.2
709.786	643.2
710.193	666.6
710.6	655.2
711.028	646.2
711.435	661.6
711.842	656
712.249	661
712.656	660.4
713.064	670.4
713.492	650.8
713.9	654.4
714.307	672.6
714.715	664
715.123	663.8
715.53	661
715.938	667.6
716.367	657.2
716.775	660.6
717.184	657.4
717.592	670
718	673.2
718.408	695.2
718.816	705.8
719.225	660.2
719.633	665.2
720.042	651.2
720.472	650.6
720.881	685.8
721.29	667
721.699	648.4
722.108	663.4
722.517	661.2
722.926	658.4
723.335	671.8
723.744	660.2
724.154	653.8
724.563	659.6
724.973	672
725.382	660
725.792	658.8
726.202	655.4
726.612	688.2
727.022	658
727.432	655.8
779.813	660
780.223	711.2
780.634	650.8
781.044	655.8
781.454	659.8
781.865	675.2
782.276	645.2
782.686	673.8
783.097	651.4
783.508	651
783.919	661.2
784.33	681.2
784.741	669.4
785.152	642.6
785.563	640.6
785.974	649.8
786.386	675.4
786.776	651
787.188	661.2
787.599	648.2
788.011	670.8
788.423	662.4
788.835	652.8
789.247	646.2
789.659	650
790.071	661
790.483	715.8
790.874	652
791.286	653
791.699	660.2
792.111	655.2
792.524	653.2
792.937	651.4
793.349	653.6
793.741	648.2
794.154	653.6
794.567	678.2
794.98	659.2
795.393	643.4
795.785	681.8
796.198	654.6
796.612	656.2
797.026	657
797.439	631.6
797.831	654.2
798.245	638.2
798.659	650.8
799.073	647.2
799.487	648.2
799.88	654
800.294	650.6
800.708	654.2
801.123	667
801.516	674.8
801.93	641.4
802.345	643
802.76	658.4
803.153	667
803.568	677
803.983	667.4
804.377	654
804.792	643.8
805.207	648
805.601	656.6
806.016	691.2
806.432	645.4
806.826	693.8
807.242	674.4
807.658	664.6
808.052	643.4
808.468	652.8
808.884	655.8
809.279	662
809.695	673.2
810.111	676.2
810.506	660
810.922	675.4
811.339	645
811.734	677
812.151	663
812.546	648.2
812.963	647.4
813.38	655.4
813.776	658.2
814.193	679
814.589	647.8
815.006	657.6
815.402	652.8
815.82	649
816.237	656
816.633	654.8
817.051	645.2
817.448	659.2
817.866	645.2
818.262	675
818.68	645.4
819.077	660.2
819.495	661.8
819.892	700
820.311	650.8
820.708	645.8
821.127	645.8
821.524	666.6
821.943	661.8
822.34	674.6
822.759	660.2
823.157	659
823.576	675
823.974	667.4
824.393	783.8
824.791	657.6
825.189	656
825.609	654.8
826.007	653.6
826.427	639.2
826.826	644.4
827.246	667.4
827.644	646.2
828.043	661.8
828.463	647.4
828.862	670.8
829.261	659.4
829.682	637.8
830.081	654.6
830.502	642.4
830.901	662.4
831.301	647.2
831.722	643.6
832.121	654.6
832.521	644.4
832.943	654.6
833.342	648
833.742	644.2
834.164	652.4
834.564	643.8
834.965	655.6
835.386	653.6
835.787	651.8
836.188	643.8
836.588	656.8
837.01	651.8
837.411	645.2
837.812	662.6
838.213	658.8
838.636	650.4
839.037	735.4
839.438	656.4
839.84	659.8
840.263	654.8
840.664	654.8
841.066	653.6
841.468	653.6
841.891	646.4
842.293	668.2
842.695	655.8
843.098	662.4
843.5	653.8
843.902	663
844.326	665.8
844.729	658.6
845.131	662.8
845.534	657.4
845.937	661.4
846.34	670.8
846.764	650.6
847.167	668
847.571	652.8
847.974	653.4
848.377	655.2
848.781	709.6
849.184	665.6
849.588	650.2
849.992	652
850.396	658.8
850.821	668
851.225	656.4
851.63	653.8
852.034	679.8
852.438	652.2
852.843	793
853.247	645.8
853.652	641.4
854.057	675.2
854.462	659.2
854.867	659.6
855.272	686.8
855.677	665.4
856.082	646.4
856.487	652.4
856.893	655.2
857.298	654.8
857.704	647.4
858.11	654.4
858.516	661.4
858.922	649.2
859.328	653.4
859.734	648.8
860.14	647
860.525	650.8
860.931	646
861.338	642.8
861.745	656.2
862.151	660.8
862.558	648
862.965	646.2
863.372	640.6
863.779	643.4
864.186	673.2
864.572	652.2
864.98	669.4
865.387	688.4
865.795	645
866.203	667.6
866.61	644.2
867.018	661.2
867.405	655.6
867.813	650.2
868.221	662.8
868.63	650.6
869.038	667.6
869.425	703.8
869.834	655
870.243	644
870.652	647.6
871.039	652.2
871.448	652.6
871.857	657.6
872.266	652.6
872.654	659.4
873.064	647.2
873.473	662.2
873.883	648.8
874.271	648.2
874.681	660
875.091	636.6
875.48	662.6
875.89	685.2
876.3	654.8
876.689	634.4
877.1	653.2
877.51	657.4
877.9	672.4
878.31	646.8
878.721	693
879.111	667.6
879.522	650.6
879.933	646.4
880.323	642.4
880.734	648.6
881.125	660
881.536	644.6
881.948	648
882.338	657.8
882.75	656.8
883.141	647.4
883.553	660.8
883.944	686
884.356	668
884.769	655.2
885.16	657.4
885.573	648.6
885.964	648
886.377	663.2
886.768	648.4
887.181	648.8
887.573	638.8
887.987	669.8
888.378	666.6
888.792	660
889.184	709.2
889.598	652.6
889.99	648.4
890.383	646
890.797	647.8
891.19	656.8
891.604	640.6
891.997	638.4
892.411	642.2
892.805	651.2
893.198	649.8
893.613	636.2
894.006	660.8
894.421	638.2
894.815	653
895.209	653.8
895.624	700
896.018	674
896.412	652.8
896.828	654.6
897.222	658
897.617	655.8
898.033	674.8
898.427	657.2
898.822	639.2
899.239	646.6
899.634	640.4
900.029	668.2
900.424	647.6
900.841	639
901.236	664.2
901.632	668.2
902.027	721.2
902.445	669.4
902.841	655.6
903.237	648.2
903.633	668.2
904.05	657.2
904.447	655.6
904.843	667.6
905.24	648.4
905.636	654.6
906.033	650.8
906.451	668.6
906.848	648.4
907.246	657
907.643	657.8
908.04	662.4
908.438	668.2
908.835	653
909.254	654.6
909.652	653.4
910.05	659
910.448	641.8
910.846	654
911.244	643.4
911.643	660
912.041	653.8
912.44	662.6
912.839	647.6
913.237	650
913.636	644
914.035	667.8
914.434	649
914.834	664.4
915.233	662
915.633	640.6
916.032	654
916.432	646.6
916.832	662
917.232	654.8
917.632	642.8
918.032	658.6
918.432	653.2
918.833	647
919.233	645.8
919.634	641.8
920.035	661.6
920.436	642
920.837	663.8
921.238	646.4
921.639	651.6
922.019	655.6
922.42	655.4
922.822	662.4
923.224	649.6
923.625	646.8
924.027	652
924.429	674.8
924.81	661.4
925.212	660.8
925.615	663.8
926.017	657.2
926.42	662
926.801	651.2
927.204	649.4
927.607	656.8
928.01	670.6
928.413	654.6
928.795	629.8
929.199	641.2
929.602	645
930.006	638.2
930.388	643.6
930.792	656
931.196	645
931.579	682.6
931.983	637.2
932.388	702.6
932.771	648.2
933.176	638.2
933.58	647.4
933.964	661
934.369	648
934.774	659.8
935.158	646.6
935.563	650.4
935.947	655.2
936.353	657.8
936.759	641.8
937.143	653.4
937.549	658
937.934	665.6
938.34	668.8
938.746	645.2
939.131	641.8
939.538	642.8
939.923	649.4
940.33	646.6
940.716	657.6
941.123	663.4
941.508	669
941.916	670.6
942.302	658.4
942.709	643.6
943.096	640.2
943.503	647.6
943.89	653.4
944.298	647.4
944.685	676
945.072	645
945.48	667.2
945.867	641
946.276	647.6
946.663	686.2
947.051	664.2
947.46	667.4
947.848	652.4
948.257	640.4
948.645	655
949.033	654.8
949.443	651.6
949.831	697.4
950.22	637.8
950.63	664.2
951.018	679.2
951.407	655
951.796	638
952.207	657
952.596	654.8
952.985	636
953.375	695.2
953.786	653.8
954.176	631.2
954.566	658.6
954.956	637.8
955.367	644
955.758	674.2
956.148	645.6
956.539	665.2
956.929	637
957.341	637
957.732	647.8
958.123	660.2
958.515	644
958.906	659
959.297	639.8
959.689	634.6
960.102	638
960.494	646
960.886	646.2
961.278	650
961.67	673
962.062	677.6
962.455	640.6
962.847	637.4
963.24	648.4
963.633	648.8
964.026	635.6
964.419	642.4
964.812	660
965.206	642.6
965.599	654.8
965.993	654.4
966.386	645.6
966.78	665
967.174	661.6
967.569	649.8
967.963	647
968.357	640.2
968.752	640.4
969.146	644.6
969.541	639
969.936	652
970.331	647.4
970.705	648
971.1	647.8
971.496	664
971.892	642
972.287	645.8
972.683	647
973.079	654.2
973.454	660.4
973.85	650.2
974.247	657.8
974.643	671.8
975.04	653.2
975.415	642.8
975.812	644.4
976.209	659.2
976.607	640.2
976.982	664
977.38	665.8
977.778	645
978.175	643.2
978.552	655.6
978.95	654.6
979.348	659.2
979.725	702.2
980.123	646.8
980.522	652
980.899	646.2
981.298	649.2
981.697	659
982.075	653.6
982.474	643.6
982.852	644.2
983.251	654.4
983.651	639.4
984.029	652.4
984.429	651.6
984.808	638
985.208	648
985.609	637.6
985.987	636.8
986.388	643.4
986.768	657
987.168	645.2
987.548	657.2
987.949	665.2
988.329	660.2
988.731	631.4
989.111	644.4
989.491	654.4
989.893	655.8
990.273	660.4
990.676	636.2
991.057	640.2
991.459	641.8
991.84	647.2
992.221	635.6
992.624	678.2
993.006	652.6
993.388	645.8
993.791	660.4
994.173	660
994.576	686.8
994.959	640.6
995.341	644.4
995.724	647.4
996.128	643.4
996.511	643.4
996.894	644
997.298	648.4
997.681	656.6
998.065	658.6
998.448	640.4
998.854	658.2
999.237	639.2
999.621	650.8
1000.01	664.6
1000.39	654.2
1000.8	638.4
1001.18	656.4
1001.56	664.6
1001.95	657.6
1002.33	655
1002.72	644.4
1003.13	650.2
1003.51	650.8
1003.9	643.8
1004.28	656.4
1004.67	649
1005.06	653.6
1005.44	681
1005.83	639.6
1006.21	647.8
1006.6	649.4
1006.99	663.8
1007.37	669.8
1007.76	652.8
1060.12	643.8
1060.51	641.4
1060.89	643.8
1061.28	667.6
1061.67	662.4
1062.06	652.8
1062.45	654.4
1062.83	642.2
1063.22	657.4
1063.61	693.4
1064	647.2
1064.39	644
1064.78	642.2
1065.14	666.4
1065.53	661.4
1065.92	650.4
1066.31	641.6
1066.7	656.2
1067.09	664.8
1067.46	658.2
1067.85	640.6
1068.24	640
1068.63	660.4
1069.02	641.6
1069.39	653.6
1069.78	646.2
1070.17	650.4
1070.57	639.2
1070.93	650
1071.33	644.2
1071.72	652.4
1072.11	642.6
1072.48	641.8
1072.87	654.4
1073.26	651
1073.64	642.6
1074.03	640
1074.4	646
1074.79	655
1075.19	646.2
1075.56	651.2
1075.95	649.8
1076.34	650.8
1076.72	642.4
1077.11	654.6
1077.48	665.6
1077.88	656.6
1078.25	652.2
1078.64	659
1079.02	652.8
1079.41	654.6
1079.78	646
1080.18	643.8
1080.55	717.8
1080.95	641.6
1081.32	644.8
1081.72	650.8
1082.09	652
1082.49	639
1082.86	648.6
1083.24	640.6
1083.63	629.8
1084.01	648
1084.38	644.6
1084.78	630.4
1085.16	651
1085.55	667.4
1085.93	660.8
1086.31	640.2
1086.7	676.4
1087.08	641
1087.46	650.8
1087.83	639.6
1088.23	663.6
1088.61	647.4
1088.99	649.6
1089.36	638.4
1089.76	647.4
1090.14	642.6
1090.52	646
1090.9	647.8
1091.27	652.2
1091.67	682.6
1092.05	648.6
1092.43	639.6
1092.81	662.4
1093.19	645.8
1093.57	640.6
1093.95	644
1094.35	661.2
1094.73	662.6
1095.11	635.4
1095.49	641.4
1095.87	643.2
1096.25	663.4
1096.63	665.2
1097.01	651.4
1097.39	656.6
1097.77	641.6
1098.15	652
1098.53	642.6
1098.91	643.8
1099.29	649
1099.68	663.4
1100.06	657.2
1100.44	651
1100.82	655.2
1101.18	646.6
1101.56	643.2
1101.95	637.2
1102.33	640.4
1102.71	656.6
1103.1	627.2
1103.48	631
1103.86	625.8
1104.22	644
1104.61	640.6
1104.99	642
1105.38	634.8
1105.76	645.6
1106.12	645.4
1106.51	685.2
1106.89	658.8
1107.26	640
1107.64	648
1108.03	633.4
1108.41	641
1108.78	650.8
1109.16	637.8
1109.55	649.6
1109.91	634.2
1110.3	627.6
1110.69	650.8
1111.05	636.8
1111.44	646.2
1111.8	633.8
1112.19	646
1112.58	648.6
1112.94	643.2
1113.33	640.8
1113.7	633.6
1114.09	640.6
1114.45	639.2
1114.84	651
1115.21	651.6
1115.6	640.2
1115.96	655
1116.35	645.4
1116.72	639
1117.11	654.2
1117.48	644.2
1117.85	639.2
1118.24	662
1118.6	653
1118.99	636.6
1119.36	654
1119.73	648.6
1120.12	642.6
1120.49	637.4
1120.86	651.4
1121.25	644.2
1121.62	629.8
1121.99	641.2
1122.38	660.4
1122.76	644.2
1123.13	639
1123.5	645
1123.89	659
1124.26	631.4
1124.63	652.4
1125	646
1125.4	639.6
1125.77	641.6
1126.14	627.2
1126.51	648.2
1126.88	652.4
1127.26	641.6
1127.63	630.6
1128.02	640.2
1128.4	640.8
1128.77	643.2
1129.14	645.6
1129.52	643.8
1129.89	646
1130.26	636.8
1130.64	636.4
1131.01	641
