#lambda/nm	C1
208.295	541.4
208.67	490.2
209.045	451
209.419	453.2
209.794	684
210.169	666.6
210.544	807
210.919	698
211.295	678.4
211.67	691.6
212.045	690.6
212.421	676.4
212.796	726
213.172	680.8
213.547	679.6
213.923	688.4
214.299	676.6
214.675	690
215.051	684.6
215.427	697.2
215.803	713.8
216.179	688
216.555	679.2
216.932	697.6
217.308	693.6
217.684	677.4
218.061	688.8
218.438	686.2
218.814	675.6
219.191	687.4
219.568	674.4
219.945	680.4
220.322	698.4
220.699	699.4
221.076	692.2
221.453	693
221.83	689.6
222.208	686.4
222.585	686.2
222.962	689.4
223.34	693
223.717	689.4
224.095	677
224.473	681
224.851	692.6
225.229	680.6
225.607	703.6
225.985	680.4
226.363	697.8
226.741	691.6
227.119	690.6
227.497	700.6
227.876	671.8
228.254	694.8
228.633	691.4
229.011	682
229.39	696
229.769	683
230.148	691
230.527	714.4
230.905	689
231.284	682
231.664	667.6
232.043	700.2
232.422	706.6
232.801	678.8
233.181	685.6
233.56	687.6
233.94	692.8
234.319	673.2
234.699	678.6
235.079	731
235.458	730
235.838	710.2
236.218	676.6
236.598	677.6
236.978	683.2
237.358	675.2
237.738	670.6
238.119	693.6
238.499	673.2
238.88	687.4
239.26	708.6
239.641	670
240.021	683.8
240.402	686.8
240.783	675.6
241.163	683.2
241.544	690.4
241.925	679.8
242.306	701.2
242.687	673.8
243.069	683.4
243.45	686
243.831	682.4
244.212	686.2
244.594	725.4
244.975	699
245.357	696
245.739	690.4
246.12	693.2
246.502	712.6
246.884	686.6
247.266	690.6
247.648	688.6
248.03	715
248.412	702
248.794	693
249.176	683.2
249.559	709
249.941	687.2
250.323	675
250.706	682.6
251.089	687.6
251.471	696.8
251.854	692.8
252.237	686
252.62	697.6
253.002	695.2
253.385	686.6
253.769	696.6
254.152	686.4
254.535	692.8
254.918	677.2
255.301	685.6
255.685	687.8
256.068	674.4
256.452	710.8
256.835	696.6
257.219	686.8
257.603	702.4
257.986	671.2
258.37	689
258.754	678.2
259.138	697.4
259.522	694.2
259.906	673.4
260.29	697.8
260.675	688
261.059	700
261.443	688.4
261.828	702.6
262.212	691.2
262.597	685.6
262.981	678.4
263.366	693.8
263.751	698.2
264.136	683.8
264.521	688.6
264.906	671.4
265.291	697.8
265.676	682.6
266.061	689.2
266.446	709.2
266.831	686.6
267.217	708
267.602	690.8
267.987	691
268.373	682.8
268.759	697.4
269.144	689.2
269.53	686
269.916	690.2
270.302	679.4
270.688	694.8
271.074	692.2
271.46	710
271.846	728.8
272.232	702
272.618	680.6
273.004	682.2
273.391	699.4
273.777	700.2
274.164	692
274.55	708
274.937	690
275.324	684.8
275.71	699.6
276.097	698.4
276.484	691.8
276.871	703.2
277.258	702.2
277.645	671.2
278.032	692.4
278.419	690.8
278.807	690.8
279.194	680.6
279.581	681.2
279.969	696.4
280.356	698.4
280.744	690.6
281.131	717.2
281.519	696.8
281.907	686
282.295	690.4
282.682	708.4
283.07	696.4
283.458	708.6
283.846	708.6
284.235	706.8
284.623	692.2
285.011	678.8
285.399	693.8
285.788	696.8
286.176	681.4
286.565	711.8
286.953	692.4
287.342	690
287.731	684.4
288.119	681
288.508	692
288.897	698.4
289.286	676.4
289.675	688.8
290.064	707.4
290.453	690.4
290.821	694.2
291.21	706
291.599	679.8
291.989	688.4
292.378	694.8
292.768	712.6
293.157	689.6
293.547	701.6
293.936	682.2
294.326	682.2
294.716	695.8
295.106	679.6
295.496	699.6
295.886	698.8
296.276	688.6
296.666	671
297.056	685.4
297.446	665.2
297.836	706.6
298.227	688
298.617	693.4
299.008	707.8
299.398	685
299.789	683.4
300.179	688.8
300.57	701
300.961	684.8
301.352	689.8
301.742	704.6
302.133	693.4
302.524	687.6
302.915	683.6
303.307	685.4
303.698	710.8
304.089	706.4
304.48	686.8
304.872	692
305.263	693.6
305.655	689
306.046	697.2
306.438	693.6
306.829	687.4
307.221	705.8
307.613	695.4
308.005	704.8
308.397	701.6
308.789	707.4
309.181	716.4
309.573	713
309.965	708.2
310.357	697.8
310.749	712.2
311.142	685.8
311.534	684.2
311.926	688.2
312.319	692
312.711	678.6
313.104	712.2
313.497	693
313.889	738
314.282	716.2
314.675	716.8
315.068	697.8
315.461	706.8
315.854	738
316.247	687
316.64	691
317.033	690.8
317.405	709.8
317.798	692.8
318.192	698
318.585	680.4
318.979	703.4
319.372	682
319.766	686.6
320.16	696
320.553	696.4
320.947	722.4
321.341	681.4
321.735	690.4
322.129	675.6
322.523	721.4
322.917	669.8
323.311	701.6
323.705	693.2
324.099	698.2
324.494	707.6
324.888	702.4
325.282	682.4
325.677	706
326.071	703
326.466	698.6
326.861	702.6
327.255	708.4
327.65	708.2
328.045	708.6
328.44	685.6
328.835	699
329.23	683.2
329.625	722
330.02	679.6
330.415	713.2
330.81	687.8
331.206	706
331.601	687.4
331.996	714.4
332.37	716.4
332.766	680.8
333.161	719.8
333.557	694.4
333.953	690.6
334.348	1136.8
334.744	689.2
335.14	686.8
335.536	684.6
335.932	706.4
336.328	692
336.724	701.6
337.12	688
337.516	692.6
337.913	689.6
338.309	704.4
338.705	705.4
339.102	701
339.498	678.6
339.895	697
340.291	689.6
340.688	701.4
341.085	687.8
341.481	689.8
341.878	683.6
342.275	717
342.672	676
343.069	674
343.466	678.6
343.842	695.8
344.239	687.2
344.636	687.4
345.033	689.2
345.431	671
345.828	700.2
346.225	680.6
346.623	736.4
347.02	689
347.418	697
347.816	709
348.213	677
348.611	697.4
349.009	673.4
349.407	702.4
349.805	678.8
350.203	676.2
350.601	705.8
350.999	682
351.397	726
351.795	694.2
352.193	699
352.57	694.4
352.969	709.6
353.367	680.8
353.766	682.8
354.164	687.2
354.563	700
354.961	690.6
355.36	682.8
355.759	684.4
356.158	675
356.557	679.4
356.956	677
357.355	677.6
357.754	695.2
358.153	689.2
358.552	714.6
358.951	679.8
359.35	701.2
359.75	679
360.149	690
360.527	669.2
360.926	674.4
361.326	685.4
361.726	691.2
362.125	676.2
362.525	689.6
362.925	682.6
363.325	681.2
363.724	687.2
364.124	679.2
364.524	680
364.924	690.8
365.324	700.4
365.725	670.8
366.125	688.8
366.525	685.4
366.904	672
367.304	660.2
367.705	705
368.105	696
368.506	674.8
368.906	684.2
369.307	679.8
369.708	687.8
370.108	668
370.509	691.2
370.91	676.2
371.311	685.6
371.712	682.8
372.113	682.8
372.514	670.4
372.894	678.2
373.295	686
373.696	684.8
374.097	690.2
374.499	710.6
374.9	681.2
375.301	675
375.703	688.8
376.105	679.6
376.506	686.8
376.908	692.2
377.309	680.2
377.711	685.8
378.113	677.8
378.493	681.4
378.895	677.4
379.297	694.2
379.699	668.4
380.102	689.6
380.504	680.8
380.906	684.2
381.308	705
381.71	682.8
382.113	698
382.515	678.8
382.918	682.4
383.299	680.4
383.701	694.2
384.104	692.2
384.507	667.2
384.909	680
385.312	669.4
385.715	674.4
386.118	674
386.521	680.2
386.924	686.8
387.327	673
387.709	666
388.112	670.8
388.515	681.6
388.918	672
389.322	687.8
389.725	671.4
390.129	707.4
390.532	684.2
390.936	679.6
391.339	668.2
391.743	689.2
392.125	673
392.529	699.6
392.933	692.8
393.337	684.6
393.74	676.4
394.144	681.8
394.548	669.2
394.953	684.4
395.357	691
395.761	673
396.144	683.8
396.548	682
396.952	682
397.357	687.2
397.761	678.4
398.166	678.6
398.57	674
398.975	664.6
399.379	686
399.763	732
400.168	681.8
400.572	682.6
400.977	672.8
401.382	704.6
401.787	685.6
402.192	692.2
402.597	696.4
403.002	667.4
403.386	694.2
403.791	706.8
404.197	678
404.602	684.8
405.007	681.2
405.413	675.6
405.818	685.2
406.224	672.4
406.608	677.4
407.014	671.4
407.42	694.8
407.825	680.4
408.231	693.6
408.637	677.6
409.043	701.8
409.449	682.8
409.834	681.8
410.24	688.4
410.646	695.4
411.052	693.8
411.458	688.4
411.865	698.8
412.271	703.2
412.677	694.6
413.062	697.6
413.469	674
413.875	714.6
414.282	701.8
414.689	687.4
415.095	688
415.502	680.4
415.888	687.4
416.294	665
416.701	726.4
417.108	677.8
417.515	688.4
417.923	687.8
418.33	701.6
418.715	695.6
419.123	678.2
419.53	681
419.937	693
420.345	706
420.752	677.4
421.16	707.4
421.546	686
421.953	694.2
422.361	681.4
422.769	689
423.177	681.8
423.585	708
423.992	712.6
424.379	696.6
424.787	693.2
425.195	700.6
425.603	685.6
426.011	703
426.419	696.4
426.806	692.8
427.214	693.8
427.623	699.2
428.031	703.6
428.44	689
428.848	703.4
429.235	709.8
429.644	689.6
430.053	689.8
430.461	705
430.87	716
431.279	699.4
431.666	674.8
432.075	681
432.484	700.6
432.893	688.8
433.302	706.2
433.711	746.2
434.099	692.4
434.508	682.4
434.918	674.8
435.327	696.6
435.737	689.6
436.125	696
436.534	695
436.944	696.6
437.353	692.8
437.763	708
438.173	674.2
438.561	693
438.971	669.8
439.381	680.8
439.791	685
440.201	667.8
440.589	683.4
440.999	682.4
441.409	693.4
441.819	668.2
442.23	699
442.619	694.4
443.029	677.4
443.439	682.6
443.85	691
444.26	704.6
444.649	693
445.06	685.4
445.471	673.4
445.881	681.8
446.292	700.6
446.682	710.8
447.092	667.2
447.503	736.6
447.914	685.4
448.325	679
448.715	676.4
449.126	675
449.537	676.2
449.948	676.6
450.338	686.6
450.75	691
451.161	680.4
451.572	688.6
451.984	683
452.374	664.2
452.786	675.2
453.197	687.2
453.609	689.8
453.999	662.8
454.411	670.8
454.823	695.2
455.235	677
455.647	687.6
456.037	684.8
456.449	668
456.862	681.8
457.274	692.2
457.665	670.8
458.077	683
458.489	724.6
458.902	681.8
459.293	683.2
459.705	677.6
460.118	676
460.53	687.4
460.921	681
461.334	682.6
461.747	687.6
462.16	692.6
462.551	695.2
462.964	685.8
463.377	658.2
463.79	673.8
464.182	690.2
464.595	671.2
465.008	675
465.421	683
465.813	675.6
466.226	684.8
466.64	675
467.053	727
467.445	682.6
467.859	696.2
468.272	679
468.686	691.2
469.078	670
469.492	666
469.906	671.4
470.298	682.6
470.712	671
471.126	737.2
471.54	665.4
471.933	668.2
472.347	678.8
472.761	661.4
473.175	657.6
473.568	666.6
473.982	664.2
474.397	675.2
474.79	677.4
475.204	675.2
475.619	667.6
476.033	677.6
476.426	680.2
476.841	664.6
477.256	696.4
477.649	662.6
478.064	661.4
478.479	666.8
478.872	669.2
479.287	649.2
479.702	667
480.118	666.4
480.511	671.2
480.927	665.4
481.342	680.4
481.736	675
482.151	660.4
482.566	685.4
482.96	675
483.376	676
483.792	665.2
484.186	678.8
484.602	669
485.017	670.4
485.412	677
485.827	685.8
486.243	680.8
486.638	700.6
487.054	688.2
487.47	693.8
487.865	675.4
488.281	671.2
488.697	673
489.092	677.4
489.508	676
489.925	687.4
490.32	658.8
490.736	680.2
491.153	672.6
491.548	673
491.964	694.6
492.381	664.2
492.776	679.4
493.193	674.2
493.61	695
494.006	679
494.422	689
494.84	667
495.235	683.8
495.652	675.4
496.069	674.6
496.465	671
496.883	665.6
497.3	708.6
497.696	676.8
498.113	685.8
498.509	665
498.927	662
499.344	672
499.741	661.8
500.158	683.6
500.576	686.8
500.973	682.2
501.39	655.6
501.787	661.8
502.205	673.4
502.623	665.2
503.02	663.4
503.438	663
503.856	663.6
504.253	667.4
504.671	677.2
505.068	666.2
505.486	672.6
505.905	679.6
506.302	673
506.72	683.2
507.118	655.8
507.536	669.4
507.955	675
508.352	679.4
508.771	682.8
509.169	675.6
509.587	666.2
510.006	674
510.404	664.4
510.823	666.6
511.221	669
511.64	671.8
512.038	683.8
512.457	669.4
512.877	664.6
513.275	667
513.694	672.4
514.092	674.6
514.512	680.6
514.91	680.4
515.33	666.8
515.749	678.4
516.148	670.4
516.568	680.4
516.966	669.2
517.386	668
517.785	679.4
518.205	669.8
518.603	666.4
519.024	665.6
519.444	677.2
519.843	675.6
520.263	686.6
520.662	674.6
521.082	675.6
521.481	672.2
521.902	682.2
522.301	676
522.722	674.8
523.121	668
523.542	671.6
523.963	671.4
524.362	677
524.783	679.6
525.183	675.4
525.604	679.4
526.003	662.6
526.425	667
526.824	674.4
527.246	666.2
527.646	676.4
528.067	671
528.467	676
528.888	675.4
529.289	654.2
529.71	665
530.11	662.4
530.532	664.4
530.932	672
531.354	653.4
531.755	713.4
532.176	676.6
532.577	671.2
532.999	670.8
533.4	663.2
533.822	686.6
534.223	673.4
534.645	668
535.046	669.6
535.468	672.4
535.869	686.6
536.292	666.6
536.693	713.4
537.115	669.6
537.516	665.8
537.939	664.8
538.34	690
538.742	691
539.165	683
539.566	666.2
539.989	670
540.391	669.4
540.814	668
541.216	668.6
541.639	665.4
542.041	680.6
542.464	663
542.866	665.4
543.268	659.6
543.691	675.2
544.093	666.2
544.517	693.4
544.919	659
545.343	689.6
545.745	656
546.147	672.8
546.571	659.4
546.974	669
547.398	670.4
547.8	677.6
548.224	668.2
548.627	658.6
549.03	672.2
549.454	657.6
549.857	654.2
550.281	660.8
550.684	665.4
551.087	673.8
551.512	671
551.915	679.8
552.34	666
552.743	664.8
553.146	661.2
553.571	670
553.975	689.2
554.399	659.2
554.803	733.2
555.207	658.8
555.632	665
556.036	670.8
556.461	662
556.865	674.4
557.268	666.4
557.694	668.4
558.098	672.8
558.502	676.4
558.927	670.4
559.332	673.8
559.736	663.4
560.162	678.2
560.566	669.8
560.992	679.6
561.396	669.6
561.801	669
562.227	669.2
562.631	670.6
563.036	669.2
563.462	689.2
563.867	667.4
564.272	651
564.698	670.2
565.103	657.8
565.508	686.8
565.935	667.4
566.34	671.2
566.745	679.2
567.172	663
567.577	692.2
567.982	686
568.409	674.4
568.815	662.2
569.22	668
569.626	682.2
570.053	647.6
570.459	669.2
570.865	670.8
571.292	674.2
571.698	671.6
572.104	654.6
572.531	659.8
572.937	680.2
573.343	663.6
573.75	665.8
574.177	675.4
574.583	675.2
574.99	663
575.396	669
575.824	667.2
576.231	666.8
576.637	658
577.065	695.4
577.472	663
577.879	662
578.286	681
578.714	656.2
579.121	666.4
579.528	668.2
579.935	682.4
580.364	661.2
580.771	652.6
581.178	660.6
581.585	671.6
582.014	680.6
582.421	665.4
582.829	660
583.236	680.8
583.644	662.2
584.073	661
584.481	666.2
584.889	656.8
585.296	674.8
585.726	665.2
586.134	660.2
586.542	661.2
586.95	684.8
587.358	657.2
587.787	673
588.196	654.6
588.604	661.4
589.012	665.2
589.421	657.2
589.851	657.8
590.259	672.8
590.668	659.8
591.076	715.6
591.485	656.8
591.894	666.6
592.324	686.2
592.733	682
593.142	651.4
593.551	658.4
593.96	668.2
594.369	659.6
594.8	660.4
595.209	671.4
595.618	646.4
596.028	659.4
596.437	651.4
596.847	673.8
597.256	662.4
597.687	676.4
598.097	667.4
598.507	648.2
598.917	670
599.327	662.8
599.736	673
600.146	673
600.556	668
600.988	687.4
601.398	663.2
601.808	677.8
602.219	652.8
602.629	663.6
603.039	667.6
603.45	702.2
603.86	663.2
604.271	690.4
604.703	668.6
605.114	665.4
605.525	668.6
605.935	677
606.346	685.2
606.757	672.2
607.168	668.2
607.579	659.4
607.99	680
608.402	659.8
608.813	662.2
609.224	655
609.636	654.6
610.047	651.8
610.48	666.2
610.892	673.8
611.303	660
611.715	656.2
612.127	659
612.539	663
612.95	658.8
613.362	654
613.774	656.2
614.186	659.4
614.599	661.4
615.011	667.8
615.423	671
615.835	659.6
616.248	657
616.66	671.4
617.073	659.6
617.485	666
617.898	671
618.311	669
618.723	666.6
619.136	696.8
619.549	675.6
619.962	689.8
620.375	659.4
620.788	677.8
621.201	658
621.614	667.8
622.028	669.4
622.441	664
622.854	681.6
623.268	655.8
623.681	675.2
624.095	668.8
624.509	677.6
624.922	672
625.336	650.6
625.728	671.8
626.142	673.6
626.556	683.2
626.97	672
627.384	657.2
627.799	664.4
628.213	669
628.627	672
629.041	666.4
629.456	659.8
629.87	671.2
630.285	667.6
630.699	685
631.093	665.2
631.507	671.8
631.922	669
632.337	668.6
632.752	653.6
633.167	660.2
633.582	655.6
633.997	657.2
634.412	662
634.806	658
635.221	649.2
635.637	674.8
636.052	650.4
636.468	662.6
636.883	687.6
637.299	663.4
637.715	654
638.109	664.2
638.525	653
638.941	694
639.357	662.4
639.773	682.2
640.189	662.6
640.584	657.6
641	659.2
641.416	651
641.832	667.8
642.249	664.4
642.665	674.8
643.06	670.6
643.477	672.8
643.894	649.2
644.31	656.4
644.727	654.6
645.123	664.2
645.54	648.6
645.957	666.4
646.374	684.8
646.77	663.2
647.187	683.2
647.604	661.4
648.021	649.6
648.439	649.4
648.835	674.6
649.252	659.6
649.67	665.2
650.088	667
650.484	659.6
650.902	669.8
651.32	675.8
651.738	664.4
652.134	660.6
652.552	680.4
652.971	673
653.389	661.2
653.786	676.2
654.204	693.4
654.622	653.8
655.019	665
655.438	665.4
655.857	666
656.275	665.8
656.673	647.6
657.091	736.6
657.51	656.2
657.908	683.4
658.327	679.2
658.746	655
659.144	664
659.563	672.6
659.982	668.4
660.38	650.2
660.8	660.6
661.219	674.2
661.617	671.6
662.037	659.8
662.457	677.6
662.855	650
663.275	696.4
663.695	661.2
664.094	666.4
664.514	663
664.934	657.4
665.333	674.6
665.753	652.8
666.152	655.6
666.572	662.4
666.993	672.2
667.392	657.4
667.812	658.8
668.212	662
668.632	677
669.053	659.4
669.453	674.2
669.874	665.6
670.273	670.4
670.694	657.8
671.116	679.2
671.515	673.2
671.937	658.6
672.337	650.8
672.758	665
673.158	665.2
673.58	658.8
673.98	662
674.402	671.6
674.824	661
675.224	656
675.646	656
676.047	656.4
676.469	658.8
676.869	670.6
677.292	661.6
677.693	650.8
678.115	655.8
678.516	662.8
678.939	663
679.34	660.4
679.762	662.4
680.164	674
680.586	655
680.988	662
681.411	689.4
681.812	658.8
682.236	653.8
682.637	655.8
683.061	648.4
683.462	658.6
683.864	655
684.288	666.4
684.69	663.2
685.114	673
685.516	665
685.94	645.2
686.342	672.4
686.766	654.8
687.168	653
687.571	678
687.995	661.6
688.398	651.8
688.822	657.6
689.225	683.4
689.628	693.6
690.052	661.6
690.456	664.6
690.88	672.8
691.284	654.4
691.687	670
692.112	648.4
692.515	652.8
692.919	659
693.344	664.4
693.747	653.4
694.173	656.4
694.577	677.4
694.98	663.4
695.406	658.8
695.81	663
696.214	664.8
696.64	670.4
697.044	676.4
697.448	667.4
697.874	665.6
698.279	668.4
698.684	651
699.11	657
699.514	663.8
699.919	668
700.324	652
700.75	664.8
701.156	658
701.561	684.8
701.987	661
702.393	672.8
702.798	673.8
703.203	661.4
703.63	655.6
704.036	653.4
704.442	672.2
704.847	658.2
705.274	661.6
705.68	667.2
706.086	674.4
706.492	651
706.92	662.4
707.326	676.8
707.732	653
708.139	655.4
708.545	656
708.973	658.4
709.38	666.2
709.786	649.2
710.193	684.8
710.6	668
711.028	651.8
711.435	660.4
711.842	667.2
712.249	653.6
712.656	657.4
713.064	680.8
713.492	654.6
713.9	645
714.307	670
714.715	656.8
715.123	656.2
715.53	665.2
715.938	669.4
716.367	658.6
716.775	657
717.184	649.8
717.592	665.2
718	673.8
718.408	692.2
718.816	709
719.225	666.4
719.633	660.4
720.042	651
720.472	655
720.881	687
721.29	662
721.699	652.6
722.108	665.2
722.517	659
722.926	662.8
723.335	663.8
723.744	660.8
724.154	660
724.563	663.6
724.973	670
725.382	661.4
725.792	663.4
726.202	655
726.612	680.6
727.022	659.2
727.432	663
779.813	655.8
780.223	708.8
780.634	658.4
781.044	654.4
781.454	659.6
781.865	674.6
782.276	664
782.686	676.2
783.097	657.2
783.508	656.2
783.919	660.6
784.33	665.6
784.741	670.4
785.152	651
785.563	635.6
785.974	657.6
786.386	669.8
786.776	660.8
787.188	664.4
787.599	641.8
788.011	670.8
788.423	666
788.835	655.8
789.247	650.6
789.659	655.2
790.071	650.6
790.483	706.4
790.874	657.6
791.286	668
791.699	655.2
792.111	660.6
792.524	665
792.937	661.4
793.349	644.4
793.741	646.4
794.154	650.2
794.567	681.4
794.98	655.6
795.393	646.6
795.785	678.6
796.198	657
796.612	659.2
797.026	658.6
797.439	636.4
797.831	657.8
798.245	644.2
798.659	657.6
799.073	648.6
799.487	654.4
799.88	652.2
800.294	663.6
800.708	661.4
801.123	665.8
801.516	684
801.93	642
802.345	636
802.76	648.6
803.153	670
803.568	666.6
803.983	666.6
804.377	655.6
804.792	641
805.207	643.6
805.601	655
806.016	694.6
806.432	652.4
806.826	696.4
807.242	684
807.658	667.2
808.052	658.6
808.468	648.4
808.884	651.6
809.279	652
809.695	670.2
810.111	683.8
810.506	654.8
810.922	670.4
811.339	651.8
811.734	664.6
812.151	653.4
812.546	653.2
812.963	640.8
813.38	667.4
813.776	668
814.193	677.2
814.589	647.8
815.006	651.4
815.402	648.4
815.82	659.8
816.237	659.8
816.633	656.6
817.051	640.4
817.448	660
817.866	645.8
818.262	675.6
818.68	658.2
819.077	655.2
819.495	658
819.892	699.8
820.311	657.8
820.708	648.8
821.127	652.4
821.524	671.4
821.943	659.8
822.34	667.6
822.759	668.4
823.157	665.4
823.576	669.4
823.974	667.6
824.393	781.6
824.791	652.8
825.189	648.2
825.609	649.2
826.007	659
826.427	645.4
826.826	653
827.246	659.2
827.644	636.8
828.043	654.8
828.463	653
828.862	667.8
829.261	657.4
829.682	642.6
830.081	666
830.502	654
830.901	660.6
831.301	647
831.722	645.6
832.121	656.4
832.521	646.2
832.943	656
833.342	658.6
833.742	652.2
834.164	653.6
834.564	645
834.965	644.8
835.386	651.4
835.787	652.4
836.188	657.4
836.588	665.2
837.01	651.8
837.411	648.2
837.812	673.2
838.213	663.8
838.636	643
839.037	732.6
839.438	655.4
839.84	665.6
840.263	664
840.664	667.6
841.066	657.8
841.468	654.2
841.891	650.2
842.293	659
842.695	661
843.098	670.8
843.5	652.2
843.902	667.6
844.326	660.4
844.729	661.8
845.131	669.6
845.534	656.8
845.937	678.8
846.34	679.4
846.764	652.4
847.167	665.2
847.571	645.6
847.974	653
848.377	648
848.781	720.4
849.184	666.4
849.588	658
849.992	654.6
850.396	667.8
850.821	685.4
851.225	669.2
851.63	658.4
852.034	680.2
852.438	662.4
852.843	703.2
853.247	652.6
853.652	649.2
854.057	671.6
854.462	662.2
854.867	669.8
855.272	687.8
855.677	658.8
856.082	651.4
856.487	646.6
856.893	664.8
857.298	650.8
857.704	652.8
858.11	648.8
858.516	661
858.922	668.8
859.328	675.2
859.734	661.2
860.14	671.2
860.525	658.2
860.931	648.6
861.338	649
861.745	662.2
862.151	662
862.558	658
862.965	647.2
863.372	649.8
863.779	641
864.186	672.4
864.572	651.4
864.98	681.4
865.387	698.8
865.795	638.8
866.203	659.8
866.61	638.8
867.018	659.4
867.405	662.2
867.813	658.4
868.221	648
868.63	656.6
869.038	662.2
869.425	699.8
869.834	650.4
870.243	640
870.652	656.6
871.039	648.4
871.448	646
871.857	658
872.266	656.4
872.654	661
873.064	643
873.473	669.8
873.883	656.6
874.271	643.6
874.681	665
875.091	649.4
875.48	673.2
875.89	680.6
876.3	648
876.689	641
877.1	656
877.51	658
877.9	668.6
878.31	656.4
878.721	691.6
879.111	662.6
879.522	649.2
879.933	643.6
880.323	636.4
880.734	641.2
881.125	665.2
881.536	652
881.948	640.4
882.338	651.4
882.75	662.4
883.141	649.4
883.553	657.2
883.944	679.2
884.356	662
884.769	654.2
885.16	662.8
885.573	652.6
885.964	644.8
886.377	671
886.768	648
887.181	654.8
887.573	642
887.987	663.2
888.378	673.8
888.792	658.4
889.184	711.2
889.598	653.2
889.99	651
890.383	650
890.797	648.4
891.19	667.8
891.604	646.6
891.997	643
892.411	635.4
892.805	640.2
893.198	660.6
893.613	639.2
894.006	654.2
894.421	642.2
894.815	649.2
895.209	641
895.624	697.6
896.018	675.8
896.412	647.6
896.828	655.4
897.222	666.4
897.617	657
898.033	673.6
898.427	659
898.822	654.8
899.239	646.2
899.634	646.2
900.029	684.4
900.424	650.2
900.841	639.6
901.236	657.2
901.632	659.4
902.027	716.2
902.445	659.2
902.841	661.4
903.237	645.4
903.633	668.2
904.05	655.6
904.447	656.4
904.843	662.2
905.24	651.8
905.636	644.6
906.033	643.2
906.451	673.2
906.848	649.8
907.246	645
907.643	650
908.04	653.8
908.438	667.8
908.835	668.6
909.254	650.4
909.652	657
910.05	652
910.448	637.8
910.846	659.2
911.244	647.6
911.643	653.4
912.041	654.4
912.44	669.2
912.839	644.4
913.237	643.2
913.636	649
914.035	669
914.434	659
914.834	666.4
915.233	664.2
915.633	652
916.032	644.6
916.432	644.6
916.832	663.6
917.232	646.4
917.632	645.6
918.032	658.2
918.432	652.2
918.833	651.8
919.233	653.2
919.634	640.2
920.035	651
920.436	649.4
920.837	661.2
921.238	652.4
921.639	650.2
922.019	658.4
922.42	658.4
922.822	670.8
923.224	654.2
923.625	642.4
924.027	652.8
924.429	676.8
924.81	659
925.212	660.6
925.615	648.6
926.017	649.2
926.42	668
926.801	652.6
927.204	658
927.607	649.8
928.01	672
928.413	658.8
928.795	626.2
929.199	645.6
929.602	651
930.006	656
930.388	646
930.792	658.6
931.196	651.6
931.579	691.2
931.983	653.8
932.388	706.4
932.771	645
933.176	642.2
933.58	653.2
933.964	665.4
934.369	644.8
934.774	660
935.158	653.6
935.563	654
935.947	653.2
936.353	654.4
936.759	653.8
937.143	658.8
937.549	663
937.934	665.8
938.34	672.8
938.746	644.8
939.131	650.8
939.538	656.8
939.923	660.6
940.33	648.2
940.716	655
941.123	662
941.508	663
941.916	675.2
942.302	662.6
942.709	647.2
943.096	645.2
943.503	646.6
943.89	648.4
944.298	649.2
944.685	684.8
945.072	648
945.48	665.8
945.867	650.6
946.276	642.4
946.663	684.4
947.051	668
947.46	661.6
947.848	658
948.257	649.8
948.645	651.8
949.033	643.6
949.443	644.2
949.831	691
950.22	640.2
950.63	664.8
951.018	681.2
951.407	655
951.796	647
952.207	662.6
952.596	658
952.985	640
953.375	710.8
953.786	642.6
954.176	645.4
954.566	670
954.956	646
955.367	656.2
955.758	679.6
956.148	648
956.539	670.2
956.929	646.2
957.341	638
957.732	648
958.123	661.2
958.515	640.4
958.906	659.4
959.297	651.2
959.689	651.4
960.102	639
960.494	658.6
960.886	647
961.278	648.6
961.67	675.2
962.062	694.2
962.455	656.8
962.847	653
963.24	642
963.633	647.8
964.026	641.8
964.419	652.8
964.812	661.8
965.206	651.2
965.599	645.6
965.993	662
966.386	641.6
966.78	652.4
967.174	666.8
967.569	645.2
967.963	643.2
968.357	638.6
968.752	647
969.146	639.6
969.541	637
969.936	647.4
970.331	644.2
970.705	644.8
971.1	635
971.496	651.8
971.892	638.8
972.287	655.2
972.683	654.6
973.079	641.8
973.454	663.6
973.85	649.4
974.247	659.8
974.643	679.6
975.04	653.6
975.415	652.4
975.812	649.8
976.209	658.4
976.607	640.6
976.982	668.6
977.38	672.6
977.778	651.6
978.175	651.2
978.552	654.6
978.95	650.6
979.348	657.6
979.725	702
980.123	644.8
980.522	657
980.899	652.8
981.298	653.2
981.697	649.8
982.075	644.8
982.474	646
982.852	646
983.251	652.6
983.651	657.4
984.029	658.2
984.429	657.2
984.808	639
985.208	649.4
985.609	636.2
985.987	629.8
986.388	642.2
986.768	660.2
987.168	657.6
987.548	663.2
987.949	658.4
988.329	654.4
988.731	635.4
989.111	644.8
989.491	649.6
989.893	644
990.273	654.2
990.676	643.8
991.057	637.6
991.459	646.6
991.84	650.2
992.221	641.2
992.624	663.2
993.006	664.4
993.388	659.8
993.791	654.4
994.173	650.4
994.576	684.2
994.959	625.2
995.341	648.8
995.724	644.8
996.128	660.2
996.511	654.8
996.894	649.2
997.298	652.4
997.681	648.6
998.065	654.8
998.448	640.6
998.854	658.2
999.237	648
999.621	660.6
1000.01	665.2
1000.39	645
1000.8	647
1001.18	651.4
1001.56	654.2
1001.95	657.4
1002.33	654.8
1002.72	656.8
1003.13	650.4
1003.51	639.6
1003.9	645
1004.28	666
1004.67	641.4
1005.06	649.8
1005.44	676.4
1005.83	639.6
1006.21	646.2
1006.6	641.4
1006.99	667.6
1007.37	654
1007.76	654.4
1060.12	646.8
1060.51	641.6
1060.89	653.8
1061.28	650.8
1061.67	664.8
1062.06	657.6
1062.45	652.4
1062.83	650.2
1063.22	662.6
1063.61	694.2
1064	653.4
1064.39	640.2
1064.78	656.2
1065.14	662.8
1065.53	639.6
1065.92	655
1066.31	644.6
1066.7	658.6
1067.09	663
1067.46	666.8
1067.85	646
1068.24	648.8
1068.63	657.2
1069.02	651.4
1069.39	659.6
1069.78	640.4
1070.17	642
1070.57	639.6
1070.93	649.6
1071.33	648
1071.72	651.8
1072.11	644.6
1072.48	645.8
1072.87	654
1073.26	651
1073.64	643.4
1074.03	639
1074.4	644
1074.79	644.4
1075.19	657.6
1075.56	656.4
1075.95	650.2
1076.34	653
1076.72	639
1077.11	660
1077.48	663.6
1077.88	652.2
1078.25	645.4
1078.64	658
1079.02	653.4
1079.41	648
1079.78	645.8
1080.18	639.8
1080.55	739
1080.95	631.2
1081.32	641.6
1081.72	657
1082.09	648.6
1082.49	642
1082.86	647.6
1083.24	641
1083.63	640.6
1084.01	651.8
1084.38	651.6
1084.78	643
1085.16	655.6
1085.55	661.4
1085.93	669
1086.31	643.6
1086.7	675.2
1087.08	651.8
1087.46	643.8
1087.83	635.2
1088.23	655.4
1088.61	649
1088.99	659
1089.36	646.2
1089.76	650.6
1090.14	648
1090.52	646.8
1090.9	646.6
1091.27	648.6
1091.67	677.6
1092.05	650.8
1092.43	645.2
1092.81	656.4
1093.19	657
1093.57	649
1093.95	645.8
1094.35	661.4
1094.73	659.8
1095.11	645.4
1095.49	649.6
1095.87	644.4
1096.25	665.2
1096.63	658.6
1097.01	652.4
1097.39	656.6
1097.77	646.4
1098.15	651.8
1098.53	646
1098.91	646.2
1099.29	648.8
1099.68	661.4
1100.06	666.6
1100.44	645.8
1100.82	647.2
1101.18	655.2
1101.56	645
1101.95	639
1102.33	642
1102.71	648.2
1103.1	642.4
1103.48	632.6
1103.86	646.2
1104.22	649.2
1104.61	650.8
1104.99	639.2
1105.38	644.6
1105.76	650
1106.12	640.4
1106.51	687.2
1106.89	659
1107.26	649.6
1107.64	664.2
1108.03	645
1108.41	654.2
1108.78	644
1109.16	647.8
1109.55	660.6
1109.91	638.2
1110.3	633
1110.69	668
1111.05	651.2
1111.44	639.4
1111.8	645.8
1112.19	643.8
1112.58	645.2
1112.94	648.2
1113.33	645.2
1113.7	641.4
1114.09	630.2
1114.45	638.8
1114.84	641.2
1115.21	647
1115.6	641
1115.96	644.8
1116.35	645.4
1116.72	643.4
1117.11	650.6
1117.48	631
1117.85	649.6
1118.24	655
1118.6	651.8
1118.99	644.2
1119.36	647.2
1119.73	647.6
1120.12	643
1120.49	629.2
1120.86	646.2
1121.25	646.2
1121.62	632.4
1121.99	640
1122.38	657.4
1122.76	645
1123.13	641.2
1123.5	657.8
1123.89	660.2
1124.26	632.8
1124.63	653.6
1125	650.8
1125.4	632.6
1125.77	643.6
1126.14	633.2
1126.51	650.4
1126.88	651.2
1127.26	642.6
1127.63	637.6
1128.02	639.4
1128.4	634.2
1128.77	643.4
1129.14	639
1129.52	649.8
1129.89	652.8
1130.26	647.4
1130.64	638
1131.01	636.8
