#lambda/nm	C1
208.295	531.8
208.67	491.6
209.045	448.4
209.419	450.4
209.794	687.2
210.169	662.8
210.544	800
210.919	697.4
211.295	679.6
211.67	685.2
212.045	679.6
212.421	685
212.796	724.2
213.172	677.6
213.547	674.4
213.923	681
214.299	676.6
214.675	684.2
215.051	694.6
215.427	694.6
215.803	702.2
216.179	686
216.555	670
216.932	689.6
217.308	682.6
217.684	684.6
218.061	691.6
218.438	692
218.814	679.6
219.191	694.4
219.568	669.4
219.945	679.8
220.322	686.6
220.699	695.6
221.076	687.8
221.453	689.6
221.83	681.4
222.208	679.2
222.585	676.6
222.962	687.6
223.34	688.6
223.717	681.6
224.095	682.2
224.473	688.8
224.851	674.2
225.229	670.4
225.607	699.8
225.985	666.4
226.363	681.4
226.741	687.4
227.119	682.6
227.497	696.4
227.876	663
228.254	693
228.633	682.8
229.011	685.2
229.39	690.2
229.769	689.4
230.148	682
230.527	709.4
230.905	683.4
231.284	680
231.664	677.4
232.043	698
232.422	687.2
232.801	674.4
233.181	696
233.56	676
233.94	678
234.319	678.2
234.699	686.2
235.079	739.6
235.458	736.6
235.838	705
236.218	675.2
236.598	676
236.978	671
237.358	676
237.738	685.8
238.119	694.8
238.499	672.2
238.88	688.4
239.26	706.4
239.641	673.6
240.021	683.4
240.402	676.2
240.783	678
241.163	683
241.544	678.6
241.925	687.4
242.306	696.4
242.687	675.2
243.069	682
243.45	694.4
243.831	680.2
244.212	676.4
244.594	730.4
244.975	698.6
245.357	684.4
245.739	675.4
246.12	689.6
246.502	702.6
246.884	675.8
247.266	686.6
247.648	697.2
248.03	712
248.412	689.6
248.794	701.6
249.176	684.6
249.559	695.4
249.941	681.4
250.323	680.4
250.706	680.2
251.089	688.6
251.471	691
251.854	687.8
252.237	686.4
252.62	693.6
253.002	693.6
253.385	689.4
253.769	704.8
254.152	687
254.535	692.4
254.918	672.6
255.301	688.2
255.685	676.8
256.068	671.4
256.452	707.2
256.835	695.8
257.219	694
257.603	702.2
257.986	683.2
258.37	693
258.754	671.4
259.138	686.4
259.522	708
259.906	671.8
260.29	692
260.675	683.4
261.059	688.6
261.443	677.2
261.828	687.8
262.212	680.6
262.597	673.8
262.981	676.2
263.366	689.6
263.751	680.8
264.136	673.6
264.521	680.2
264.906	673.4
265.291	689.8
265.676	675.8
266.061	682
266.446	702.2
266.831	678.6
267.217	711.8
267.602	685.4
267.987	688.2
268.373	674
268.759	695.4
269.144	691.6
269.53	676.6
269.916	674.2
270.302	678.6
270.688	688
271.074	691.8
271.46	700.2
271.846	730.2
272.232	687.2
272.618	681.2
273.004	680.4
273.391	692
273.777	696.6
274.164	688.8
274.55	707.6
274.937	693.2
275.324	683.4
275.71	693.2
276.097	691.2
276.484	672.6
276.871	683.8
277.258	698.4
277.645	669.8
278.032	674.6
278.419	684.2
278.807	695.4
279.194	670.4
279.581	676.8
279.969	697.6
280.356	689.6
280.744	692.4
281.131	712.8
281.519	697.4
281.907	666
282.295	684.2
282.682	698.2
283.07	679.4
283.458	708.8
283.846	701.6
284.235	698.2
284.623	702.8
285.011	674.8
285.399	688.6
285.788	688.6
286.176	673.6
286.565	702.2
286.953	681.2
287.342	681.2
287.731	677.8
288.119	672
288.508	676.4
288.897	689
289.286	680.2
289.675	693
290.064	698.2
290.453	686.8
290.821	681
291.21	695.4
291.599	682.2
291.989	690.6
292.378	698.4
292.768	707.2
293.157	700.2
293.547	698.4
293.936	678.4
294.326	679
294.716	685.4
295.106	683.2
295.496	694.8
295.886	705.2
296.276	690.2
296.666	685
297.056	679.4
297.446	676.6
297.836	704.6
298.227	683.4
298.617	689.4
299.008	704
299.398	691.2
299.789	679
300.179	690.4
300.57	702.2
300.961	684.6
301.352	689.4
301.742	699.6
302.133	690.6
302.524	683.8
302.915	691.8
303.307	671.2
303.698	693.4
304.089	691
304.48	687.2
304.872	692.8
305.263	684.4
305.655	674.8
306.046	688
306.438	693.4
306.829	685.4
307.221	695.8
307.613	692.6
308.005	705.6
308.397	704.4
308.789	711.6
309.181	713.4
309.573	703.4
309.965	699.4
310.357	680.6
310.749	708.2
311.142	684.2
311.534	683.8
311.926	700.6
312.319	702.8
312.711	677
313.104	708.4
313.497	682.2
313.889	731.8
314.282	699.6
314.675	723.4
315.068	691.8
315.461	692.6
315.854	719.8
316.247	696.2
316.64	683.2
317.033	686.4
317.405	694
317.798	685.8
318.192	695.8
318.585	681
318.979	685.2
319.372	673.4
319.766	687.4
320.16	692.8
320.553	714.6
320.947	717.6
321.341	691.4
321.735	682.8
322.129	666.2
322.523	720.6
322.917	681.8
323.311	702.8
323.705	696.8
324.099	701.4
324.494	705.6
324.888	702
325.282	687.6
325.677	711.2
326.071	703.8
326.466	704.8
326.861	695
327.255	705
327.65	708.8
328.045	718.2
328.44	695.6
328.835	687.4
329.23	676
329.625	719.2
330.02	688.8
330.415	714
330.81	685.4
331.206	697
331.601	682.6
331.996	691.2
332.37	714
332.766	674
333.161	715.6
333.557	688.4
333.953	687.8
334.348	1095.8
334.744	694.2
335.14	683.8
335.536	687
335.932	703
336.328	685
336.724	701
337.12	697.8
337.516	691.6
337.913	691.4
338.309	700
338.705	693.6
339.102	698.8
339.498	685.6
339.895	697.2
340.291	681
340.688	699.4
341.085	681
341.481	685.2
341.878	693.2
342.275	721.4
342.672	688
343.069	684.4
343.466	679
343.842	695.4
344.239	683.6
344.636	692.2
345.033	671.4
345.431	672.6
345.828	683.8
346.225	690
346.623	723.2
347.02	679.2
347.418	705.4
347.816	702.4
348.213	665.2
348.611	691.8
349.009	683.4
349.407	704.8
349.805	674.4
350.203	681.6
350.601	690.4
350.999	692
351.397	761
351.795	693.6
352.193	700.8
352.57	692.4
352.969	697.4
353.367	675.8
353.766	679.2
354.164	687.4
354.563	700.6
354.961	684.6
355.36	688.4
355.759	688
356.158	676
356.557	680.6
356.956	688.8
357.355	670.2
357.754	693.8
358.153	699.6
358.552	719
358.951	688
359.35	696.6
359.75	682.4
360.149	665
360.527	668
360.926	674.4
361.326	681
361.726	680
362.125	671.4
362.525	686.2
362.925	677.8
363.325	688
363.724	687.2
364.124	684.2
364.524	678.8
364.924	674.4
365.324	703.8
365.725	665.8
366.125	692.2
366.525	681.2
366.904	673.2
367.304	664.6
367.705	707.2
368.105	702
368.506	679.4
368.906	680.8
369.307	679.4
369.708	683
370.108	667.2
370.509	687.4
370.91	672.4
371.311	682.8
371.712	681.6
372.113	682.2
372.514	665.6
372.894	675.4
373.295	671.8
373.696	694
374.097	690.2
374.499	714.6
374.9	682.6
375.301	676.6
375.703	679.4
376.105	677.8
376.506	678.4
376.908	687.2
377.309	682.6
377.711	685.2
378.113	663.8
378.493	677.6
378.895	668
379.297	692
379.699	663.8
380.102	687.8
380.504	678.4
380.906	683.2
381.308	708
381.71	673.8
382.113	686.6
382.515	680.4
382.918	683.8
383.299	676.6
383.701	685.4
384.104	684.2
384.507	653.2
384.909	678
385.312	666.2
385.715	672
386.118	682
386.521	675
386.924	686.6
387.327	674
387.709	661
388.112	658.8
388.515	677.6
388.918	683.2
389.322	683.8
389.725	682
390.129	697.6
390.532	679.2
390.936	674.4
391.339	674.8
391.743	692.8
392.125	672
392.529	694.6
392.933	694
393.337	676.4
393.74	686
394.144	676.6
394.548	667.6
394.953	676.8
395.357	682.6
395.761	665.4
396.144	688.6
396.548	684.4
396.952	678.6
397.357	691
397.761	677.6
398.166	677.4
398.57	677.8
398.975	676.2
399.379	676
399.763	725.4
400.168	686.2
400.572	673.2
400.977	681.6
401.382	706.6
401.787	687.8
402.192	701.2
402.597	700.2
403.002	669.2
403.386	697.2
403.791	697.2
404.197	667.2
404.602	686.4
405.007	685
405.413	671
405.818	689.8
406.224	672
406.608	681.2
407.014	667.2
407.42	694.4
407.825	674.6
408.231	688.8
408.637	679.6
409.043	696.4
409.449	676.6
409.834	664.8
410.24	672.2
410.646	690.6
411.052	687.2
411.458	688.4
411.865	682.2
412.271	689
412.677	689.6
413.062	684.4
413.469	673.6
413.875	703.4
414.282	687
414.689	683.4
415.095	688.4
415.502	677
415.888	681.8
416.294	672.2
416.701	732.4
417.108	670.8
417.515	688.6
417.923	676.4
418.33	703.2
418.715	691
419.123	674.4
419.53	680.8
419.937	681.8
420.345	700.8
420.752	670.4
421.16	686.8
421.546	672.2
421.953	688.8
422.361	670
422.769	681.6
423.177	670.6
423.585	705.2
423.992	708.8
424.379	697
424.787	702
425.195	707.8
425.603	686.4
426.011	690.2
426.419	704.4
426.806	681.2
427.214	689.4
427.623	703.4
428.031	699.2
428.44	686.8
428.848	704.2
429.235	702.4
429.644	692.4
430.053	696.8
430.461	708.2
430.87	718.2
431.279	698.2
431.666	675.2
432.075	691.8
432.484	685
432.893	684.2
433.302	707.8
433.711	743
434.099	687.8
434.508	668
434.918	671.4
435.327	692
435.737	698.2
436.125	692.6
436.534	684.4
436.944	682.6
437.353	691.2
437.763	707.6
438.173	669
438.561	694
438.971	662.6
439.381	686.6
439.791	689
440.201	659.2
440.589	685.4
440.999	690
441.409	686.8
441.819	668.2
442.23	700.4
442.619	697
443.029	691.6
443.439	684.2
443.85	691.4
444.26	701.4
444.649	686.6
445.06	679
445.471	677
445.881	683.8
446.292	704.8
446.682	696.6
447.092	669.2
447.503	734.6
447.914	690.4
448.325	682
448.715	671.2
449.126	673
449.537	677
449.948	681.2
450.338	684.2
450.75	690.6
451.161	680
451.572	685.2
451.984	668.6
452.374	661
452.786	673.8
453.197	686.4
453.609	693.4
453.999	667.6
454.411	671.6
454.823	687.2
455.235	678.6
455.647	673.6
456.037	685
456.449	663
456.862	685.8
457.274	677.2
457.665	666.4
458.077	682.4
458.489	715.2
458.902	671.6
459.293	681
459.705	685.2
460.118	669.6
460.53	690.8
460.921	675.8
461.334	686
461.747	678.6
462.16	689
462.551	701.2
462.964	685.4
463.377	659.8
463.79	668
464.182	682.2
464.595	662.8
465.008	675.2
465.421	681.2
465.813	667.4
466.226	682.6
466.64	680
467.053	732.8
467.445	685.2
467.859	696.8
468.272	674.8
468.686	687.8
469.078	677.8
469.492	667.6
469.906	672.2
470.298	685.2
470.712	673.4
471.126	734.6
471.54	658.2
471.933	666
472.347	673.8
472.761	666.8
473.175	656.4
473.568	667
473.982	657.4
474.397	674.2
474.79	670.8
475.204	673.8
475.619	668
476.033	676.4
476.426	674.2
476.841	663.4
477.256	704
477.649	663.8
478.064	665.8
478.479	658
478.872	663
479.287	654.6
479.702	658.6
480.118	664.6
480.511	675.6
480.927	665.8
481.342	661.4
481.736	679
482.151	672.4
482.566	685.8
482.96	677.6
483.376	688.4
483.792	664.6
484.186	681
484.602	674.2
485.017	672.4
485.412	678
485.827	682.2
486.243	673.4
486.638	691.4
487.054	688.6
487.47	696
487.865	665.6
488.281	671.6
488.697	666
489.092	673.4
489.508	660.2
489.925	676.4
490.32	669.4
490.736	680.2
491.153	678.8
491.548	672.4
491.964	684.2
492.381	654
492.776	682.2
493.193	671.4
493.61	684.8
494.006	673.8
494.422	678.8
494.84	673.8
495.235	685.6
495.652	673.2
496.069	670
496.465	667
496.883	673.4
497.3	696.8
497.696	662.2
498.113	679
498.509	659
498.927	656.2
499.344	654
499.741	662.6
500.158	679.4
500.576	681.6
500.973	672.8
501.39	660.6
501.787	661.8
502.205	674.8
502.623	662.8
503.02	664.6
503.438	660.6
503.856	675.4
504.253	673.8
504.671	672.2
505.068	661.2
505.486	671.2
505.905	689.2
506.302	682.2
506.72	686.4
507.118	670
507.536	674.2
507.955	667.4
508.352	665
508.771	673.6
509.169	683
509.587	665.2
510.006	669.8
510.404	667.8
510.823	669
511.221	664.8
511.64	661.6
512.038	681.4
512.457	668.8
512.877	674.4
513.275	666
513.694	657.4
514.092	660.6
514.512	673.8
514.91	668.8
515.33	670.4
515.749	658.4
516.148	668.2
516.568	673
516.966	671.8
517.386	665.8
517.785	664.6
518.205	659.4
518.603	658.6
519.024	654.4
519.444	670.8
519.843	676.6
520.263	686.8
520.662	673.8
521.082	671
521.481	676.2
521.902	664.6
522.301	673.8
522.722	671.6
523.121	661.6
523.542	662.8
523.963	666.8
524.362	661.2
524.783	668.4
525.183	670.2
525.604	668.6
526.003	659
526.425	650.4
526.824	670.8
527.246	673.8
527.646	682.6
528.067	671
528.467	661
528.888	675.6
529.289	669
529.71	669.8
530.11	664.8
530.532	670.6
530.932	666.2
531.354	650.2
531.755	716
532.176	669.4
532.577	663.4
532.999	666.8
533.4	671.4
533.822	679.2
534.223	673.8
534.645	660.2
535.046	664.6
535.468	671.8
535.869	678.2
536.292	657.4
536.693	710.4
537.115	670
537.516	665.6
537.939	663
538.34	680.2
538.742	674.4
539.165	665.8
539.566	671.8
539.989	653.8
540.391	661.6
540.814	671.8
541.216	670.2
541.639	672.2
542.041	676.6
542.464	668.4
542.866	661.6
543.268	660
543.691	668.4
544.093	676.8
544.517	692.8
544.919	664
545.343	692.2
545.745	658.2
546.147	662.4
546.571	662.2
546.974	653.8
547.398	674.2
547.8	675.2
548.224	664.6
548.627	664.8
549.03	676
549.454	667
549.857	640.8
550.281	666.6
550.684	651
551.087	674.8
551.512	666.8
551.915	673
552.34	663.2
552.743	657.4
553.146	667.2
553.571	666.6
553.975	684
554.399	658.8
554.803	725.4
555.207	675.4
555.632	661.8
556.036	671.2
556.461	658.2
556.865	667
557.268	656.4
557.694	661
558.098	675.2
558.502	669.6
558.927	668.6
559.332	673.4
559.736	663.4
560.162	672.8
560.566	668.4
560.992	674.4
561.396	668.4
561.801	659.6
562.227	669.6
562.631	664.6
563.036	668.6
563.462	670.2
563.867	668
564.272	660
564.698	671
565.103	650.8
565.508	692.6
565.935	669.4
566.34	666.8
566.745	676.4
567.172	668
567.577	686.2
567.982	684.8
568.409	669.8
568.815	654
569.22	669.4
569.626	670.8
570.053	647.6
570.459	674.4
570.865	676.6
571.292	673.8
571.698	667.8
572.104	650.2
572.531	661
572.937	669.8
573.343	657.4
573.75	662.2
574.177	663.8
574.583	676.6
574.99	659.2
575.396	675.4
575.824	657.4
576.231	665.8
576.637	660.2
577.065	687.4
577.472	658
577.879	656.2
578.286	680.8
578.714	653.2
579.121	654
579.528	665.6
579.935	666.2
580.364	667.2
580.771	644.6
581.178	655.4
581.585	665.4
582.014	669.8
582.421	657.6
582.829	658.4
583.236	670.6
583.644	657
584.073	665.6
584.481	664.6
584.889	658
585.296	671.6
585.726	669.4
586.134	656.6
586.542	664.4
586.95	690.8
587.358	652.2
587.787	660.8
588.196	650.6
588.604	661.6
589.012	666
589.421	653.4
589.851	662.4
590.259	657.4
590.668	657.8
591.076	709
591.485	653.8
591.894	661.6
592.324	678.4
592.733	674
593.142	651
593.551	654
593.96	676.4
594.369	652
594.8	657.2
595.209	669.4
595.618	653.8
596.028	657.6
596.437	650.6
596.847	662.2
597.256	670
597.687	662.6
598.097	655.2
598.507	649.6
598.917	675.2
599.327	662.6
599.736	671.4
600.146	674.6
600.556	666
600.988	673.2
601.398	661
601.808	679.2
602.219	656.6
602.629	658.8
603.039	666.2
603.45	699.2
603.86	662.8
604.271	694
604.703	658
605.114	669.8
605.525	664.4
605.935	672.6
606.346	696.6
606.757	663.8
607.168	662.2
607.579	660.2
607.99	685.4
608.402	662.6
608.813	668.2
609.224	661.4
609.636	646.4
610.047	649.4
610.48	662.2
610.892	672.4
611.303	677.8
611.715	664.6
612.127	659.8
612.539	659.2
612.95	667
613.362	647.6
613.774	649.4
614.186	662.6
614.599	662.8
615.011	675.8
615.423	660.8
615.835	651.4
616.248	658.6
616.66	670.6
617.073	647.8
617.485	669.4
617.898	670
618.311	659.8
618.723	659.2
619.136	696
619.549	681.6
619.962	691.4
620.375	655.4
620.788	663.8
621.201	651.2
621.614	672.4
622.028	666
622.441	666
622.854	673
623.268	647.8
623.681	664.8
624.095	667.2
624.509	674.6
624.922	669.6
625.336	642.2
625.728	670.4
626.142	680.4
626.556	683.4
626.97	668.4
627.384	655.8
627.799	661.2
628.213	672.2
628.627	662.6
629.041	650.4
629.456	652.6
629.87	655.6
630.285	666.8
630.699	666.8
631.093	653.6
631.507	671
631.922	672.2
632.337	667.6
632.752	656.8
633.167	658.4
633.582	656.6
633.997	656.2
634.412	658
634.806	660.2
635.221	653.4
635.637	669.8
636.052	645.8
636.468	665.6
636.883	683.6
637.299	667
637.715	647.2
638.109	663
638.525	647.6
638.941	671.4
639.357	664.4
639.773	669.6
640.189	653.6
640.584	655.2
641	663.4
641.416	643.8
641.832	658.4
642.249	659.6
642.665	658.2
643.06	662.4
643.477	677.8
643.894	643.2
644.31	658.2
644.727	666
645.123	660.6
645.54	658.4
645.957	655.8
646.374	671.6
646.77	662.2
647.187	697.4
647.604	660.8
648.021	648.4
648.439	650.8
648.835	662.6
649.252	660.2
649.67	660.8
650.088	673.4
650.484	672.6
650.902	666.4
651.32	666.2
651.738	661.6
652.134	653.6
652.552	675
652.971	671
653.389	657.8
653.786	672.2
654.204	683.8
654.622	652.8
655.019	654.6
655.438	667.2
655.857	657.6
656.275	665
656.673	661.8
657.091	737
657.51	656.4
657.908	676.4
658.327	680.4
658.746	646.4
659.144	663
659.563	664.6
659.982	661.6
660.38	649.4
660.8	669.4
661.219	673
661.617	667.8
662.037	662
662.457	669
662.855	655.2
663.275	691.8
663.695	658.2
664.094	652
664.514	666.8
664.934	657.8
665.333	676.6
665.753	649.2
666.152	645.8
666.572	644.6
666.993	671.6
667.392	657.2
667.812	666.6
668.212	658.2
668.632	663
669.053	661
669.453	673
669.874	662.2
670.273	662.8
670.694	657.2
671.116	671.2
671.515	667.2
671.937	658.6
672.337	655.6
672.758	659.2
673.158	662.4
673.58	648.8
673.98	654.6
674.402	682.2
674.824	660
675.224	654.6
675.646	644
676.047	652.4
676.469	662.4
676.869	666.2
677.292	667.8
677.693	647.8
678.115	651.4
678.516	670.4
678.939	656.8
679.34	656.4
679.762	667.8
680.164	663.4
680.586	647.4
680.988	663.4
681.411	678.4
681.812	652.6
682.236	653.6
682.637	641.8
683.061	648.2
683.462	663.2
683.864	652.6
684.288	662.4
684.69	647
685.114	666.6
685.516	670.8
685.94	643.2
686.342	670.2
686.766	653
687.168	645.8
687.571	677.2
687.995	655.6
688.398	647.6
688.822	657.4
689.225	680
689.628	677.2
690.052	650.2
690.456	659.2
690.88	661.4
691.284	648
691.687	671.6
692.112	649.8
692.515	644.8
692.919	659.2
693.344	657.8
693.747	664
694.173	653.4
694.577	666.4
694.98	654
695.406	646.6
695.81	660.6
696.214	662.6
696.64	656.8
697.044	662.6
697.448	656.6
697.874	666.4
698.279	648.2
698.684	642.6
699.11	655.8
699.514	659.2
699.919	670.2
700.324	648.2
700.75	668.4
701.156	659.6
701.561	666.2
701.987	663.2
702.393	673.4
702.798	675.6
703.203	671.8
703.63	658.6
704.036	641.2
704.442	660
704.847	653.6
705.274	655
705.68	657.2
706.086	667.6
706.492	645.4
706.92	653.8
707.326	665.2
707.732	661.8
708.139	655.4
708.545	658.4
708.973	660.8
709.38	655.2
709.786	641.4
710.193	673.4
710.6	658.4
711.028	649.2
711.435	650.6
711.842	660.8
712.249	659.4
712.656	659.6
713.064	680.6
713.492	648.2
713.9	656.8
714.307	658.2
714.715	663.4
715.123	655.6
715.53	662.4
715.938	669.4
716.367	669.6
716.775	655.8
717.184	645.2
717.592	663.8
718	674.8
718.408	691.8
718.816	707.8
719.225	661.2
719.633	663.8
720.042	648.8
720.472	653.8
720.881	678.2
721.29	652.8
721.699	647.6
722.108	653.8
722.517	662.2
722.926	655.4
723.335	666.6
723.744	648
724.154	653.6
724.563	649.6
724.973	652.4
725.382	664.6
725.792	653
726.202	650.2
726.612	677
727.022	658.4
727.432	649.4
779.813	655.8
780.223	703.4
780.634	652.8
781.044	649.4
781.454	658.8
781.865	667.8
782.276	644.6
782.686	661.2
783.097	653.4
783.508	658.8
783.919	659.4
784.33	665.4
784.741	671
785.152	647
785.563	637.2
785.974	648
786.386	668.4
786.776	645
787.188	660.8
787.599	649
788.011	661.6
788.423	661.2
788.835	652.4
789.247	646.2
789.659	645.2
790.071	649.6
790.483	706.4
790.874	657.6
791.286	659.4
791.699	669.6
792.111	658.4
792.524	665
792.937	646.8
793.349	648.6
793.741	646.2
794.154	655.2
794.567	674.6
794.98	659.2
795.393	654.4
795.785	673.8
796.198	652.2
796.612	654.6
797.026	654.2
797.439	642.8
797.831	658.2
798.245	647.4
798.659	655.2
799.073	645.2
799.487	640
799.88	653
800.294	657
800.708	657
801.123	649.2
801.516	671
801.93	642
802.345	642
802.76	655
803.153	665.2
803.568	673.4
803.983	672.4
804.377	665.2
804.792	644
805.207	642.8
805.601	651.2
806.016	694.8
806.432	643.8
806.826	684.2
807.242	683.4
807.658	662.8
808.052	646
808.468	645
808.884	660.4
809.279	661
809.695	683.6
810.111	683.4
810.506	659.2
810.922	684
811.339	646.6
811.734	662
812.151	645.8
812.546	652.4
812.963	657.6
813.38	664.6
813.776	654.6
814.193	674.8
814.589	642
815.006	655.6
815.402	646.8
815.82	655.8
816.237	654.8
816.633	659.8
817.051	655.4
817.448	661
817.866	636.2
818.262	679.2
818.68	658.8
819.077	659
819.495	657
819.892	703.6
820.311	644.8
820.708	653.8
821.127	653.4
821.524	666.2
821.943	654.2
822.34	667.8
822.759	668
823.157	654.2
823.576	665.8
823.974	668.8
824.393	785.2
824.791	651.8
825.189	649.8
825.609	658
826.007	657.4
826.427	642
826.826	644.6
827.246	657.4
827.644	638
828.043	663.2
828.463	646.4
828.862	659.2
829.261	661.6
829.682	637.8
830.081	650.4
830.502	644.8
830.901	655.6
831.301	648
831.722	646.4
832.121	653.2
832.521	647.8
832.943	651
833.342	650.6
833.742	640.4
834.164	649.8
834.564	640.6
834.965	646.8
835.386	655
835.787	647.4
836.188	656.2
836.588	646
837.01	650.6
837.411	636.2
837.812	657.8
838.213	650.6
838.636	642.4
839.037	727.6
839.438	658.6
839.84	647.6
840.263	655.6
840.664	664.8
841.066	649.4
841.468	658.6
841.891	638.4
842.293	675
842.695	649.2
843.098	666.2
843.5	648.6
843.902	652.2
844.326	660.2
844.729	661.8
845.131	668.8
845.534	649.6
845.937	673.4
846.34	675.6
846.764	652.2
847.167	657.8
847.571	650.8
847.974	665.4
848.377	656.8
848.781	709.4
849.184	662.4
849.588	649
849.992	650
850.396	663.4
850.821	677
851.225	655
851.63	650.4
852.034	659.4
852.438	659
852.843	791.8
853.247	642.8
853.652	646
854.057	675
854.462	656.8
854.867	657
855.272	682.8
855.677	663.8
856.082	649
856.487	643.8
856.893	656.8
857.298	645.4
857.704	651.8
858.11	660.4
858.516	663.4
858.922	656.6
859.328	667.8
859.734	651.6
860.14	661.4
860.525	654.2
860.931	644
861.338	650.6
861.745	661
862.151	662.4
862.558	654.8
862.965	648
863.372	652
863.779	645
864.186	676.6
864.572	648.6
864.98	677.4
865.387	687.4
865.795	641.2
866.203	665
866.61	643.6
867.018	663.2
867.405	663.8
867.813	652.4
868.221	646.8
868.63	644
869.038	662.6
869.425	698
869.834	657.6
870.243	641.4
870.652	645.4
871.039	651.4
871.448	653.2
871.857	654.4
872.266	653.2
872.654	647.8
873.064	653.4
873.473	673.8
873.883	647.8
874.271	639.8
874.681	663.2
875.091	644.6
875.48	671.2
875.89	669.6
876.3	646.6
876.689	636.2
877.1	654
877.51	646.8
877.9	675.4
878.31	652.4
878.721	688.6
879.111	652.8
879.522	653.2
879.933	635.4
880.323	648
880.734	637
881.125	656
881.536	645.2
881.948	652
882.338	652.6
882.75	664
883.141	640.2
883.553	660.6
883.944	682.2
884.356	654
884.769	650
885.16	649.4
885.573	647
885.964	646.4
886.377	653.6
886.768	634.2
887.181	652.4
887.573	628.2
887.987	663.8
888.378	660.2
888.792	657.8
889.184	697.6
889.598	644.2
889.99	655
890.383	644.2
890.797	647
891.19	669.8
891.604	643.4
891.997	647.6
892.411	646
892.805	636.6
893.198	653.8
893.613	639.4
894.006	644.6
894.421	647.4
894.815	655
895.209	640.8
895.624	695
896.018	676.8
896.412	642.8
896.828	657.8
897.222	658.2
897.617	658.2
898.033	671
898.427	655.8
898.822	649
899.239	638.8
899.634	636.2
900.029	671.8
900.424	639.8
900.841	631.8
901.236	661.8
901.632	661.4
902.027	710.6
902.445	669.6
902.841	650.2
903.237	650.4
903.633	666
904.05	652.2
904.447	658.4
904.843	663.4
905.24	655
905.636	640
906.033	644
906.451	670.4
906.848	642.6
907.246	657
907.643	659.8
908.04	661.4
908.438	674.4
908.835	652.8
909.254	655.8
909.652	653.8
910.05	654.4
910.448	653
910.846	659.8
911.244	643.6
911.643	654.4
912.041	646
912.44	665.4
912.839	642.4
913.237	641.8
913.636	650
914.035	661.4
914.434	646.6
914.834	655.8
915.233	665.8
915.633	651.4
916.032	643.8
916.432	645.2
916.832	667.2
917.232	653
917.632	634.8
918.032	661.6
918.432	651.8
918.833	649.6
919.233	655.4
919.634	645
920.035	663.4
920.436	645.2
920.837	650.2
921.238	641.8
921.639	644
922.019	655.6
922.42	658.6
922.822	660.4
923.224	649.4
923.625	640.6
924.027	654
924.429	673.6
924.81	663.4
925.212	657.8
925.615	651
926.017	655.2
926.42	667.8
926.801	656.8
927.204	646
927.607	654.8
928.01	660.2
928.413	642.2
928.795	644
929.199	642.4
929.602	649.6
930.006	637.4
930.388	638
930.792	646
931.196	644.6
931.579	688.6
931.983	642.6
932.388	698.4
932.771	651.4
933.176	638.2
933.58	650
933.964	659.2
934.369	639.6
934.774	650
935.158	648.8
935.563	644.4
935.947	650.8
936.353	646.2
936.759	646.8
937.143	648.2
937.549	647.8
937.934	662.4
938.34	665.8
938.746	624.6
939.131	641.4
939.538	647.8
939.923	651
940.33	642.2
940.716	649
941.123	645.6
941.508	652
941.916	665
942.302	651
942.709	636.4
943.096	646.6
943.503	657.2
943.89	644.4
944.298	647
944.685	684.6
945.072	645
945.48	661.4
945.867	647
946.276	650.8
946.663	671.4
947.051	677.6
947.46	665.2
947.848	656
948.257	648.2
948.645	646.4
949.033	645.6
949.443	643.6
949.831	678.4
950.22	643.4
950.63	655.4
951.018	689.8
951.407	655.6
951.796	640.6
952.207	656.4
952.596	662
952.985	635.4
953.375	695.8
953.786	649.8
954.176	632.8
954.566	659.6
954.956	637.2
955.367	649
955.758	677.4
956.148	639.4
956.539	656.8
956.929	636.6
957.341	641.2
957.732	645
958.123	659.6
958.515	641
958.906	655.2
959.297	644
959.689	647.6
960.102	645.2
960.494	660.2
960.886	650.8
961.278	649.4
961.67	680.8
962.062	700.2
962.455	649.8
962.847	634.8
963.24	647.8
963.633	645.8
964.026	635.6
964.419	648.8
964.812	660.6
965.206	637.8
965.599	653.8
965.993	641.2
966.386	641
966.78	661.6
967.174	662.4
967.569	641.2
967.963	637
968.357	634
968.752	641.8
969.146	647.2
969.541	642.4
969.936	641.6
970.331	637.2
970.705	656.2
971.1	649.2
971.496	661.6
971.892	645.2
972.287	650.6
972.683	652.8
973.079	642.8
973.454	666.8
973.85	654
974.247	656.6
974.643	672
975.04	648.8
975.415	649.8
975.812	633.2
976.209	646.4
976.607	634.8
976.982	657.2
977.38	673.6
977.778	646.8
978.175	641.8
978.552	648.8
978.95	654
979.348	656.2
979.725	703.8
980.123	644.4
980.522	644.8
980.899	639.4
981.298	652.4
981.697	653
982.075	637.8
982.474	643
982.852	643.8
983.251	653.4
983.651	636
984.029	646
984.429	640.6
984.808	631.4
985.208	639.6
985.609	636
985.987	639
986.388	641
986.768	646.8
987.168	634.2
987.548	650.4
987.949	652.2
988.329	650.2
988.731	625.4
989.111	650
989.491	635.8
989.893	646
990.273	654.8
990.676	635.6
991.057	644.2
991.459	651.2
991.84	655.2
992.221	631.8
992.624	660
993.006	653.2
993.388	656.8
993.791	641
994.173	654.8
994.576	686.8
994.959	639.4
995.341	649.8
995.724	642.4
996.128	649.6
996.511	656.2
996.894	647.8
997.298	645.6
997.681	647.4
998.065	643.2
998.448	643
998.854	659.2
999.237	631.6
999.621	664.4
1000.01	666.8
1000.39	648.6
1000.8	639.2
1001.18	661.6
1001.56	650.4
1001.95	655.2
1002.33	651.8
1002.72	644.4
1003.13	650
1003.51	653.2
1003.9	645.8
1004.28	669
1004.67	643.2
1005.06	648
1005.44	684.8
1005.83	633.6
1006.21	648
1006.6	647.2
1006.99	661.8
1007.37	657.8
1007.76	642.8
1060.12	642.8
1060.51	636.8
1060.89	650.8
1061.28	659.8
1061.67	660.2
1062.06	647
1062.45	644.4
1062.83	637
1063.22	655
1063.61	689.4
1064	650.4
1064.39	651.6
1064.78	646.4
1065.14	656.2
1065.53	643.4
1065.92	635.8
1066.31	641.8
1066.7	651.6
1067.09	663.6
1067.46	660.4
1067.85	638
1068.24	645
1068.63	652
1069.02	638.8
1069.39	652.6
1069.78	647.6
1070.17	638
1070.57	633.8
1070.93	652.8
1071.33	640.8
1071.72	654.8
1072.11	657.2
1072.48	643
1072.87	656.4
1073.26	646.2
1073.64	639.8
1074.03	635.2
1074.4	652.2
1074.79	641.8
1075.19	641.2
1075.56	651.4
1075.95	651.8
1076.34	646
1076.72	640.8
1077.11	651
1077.48	660.2
1077.88	636.8
1078.25	648.8
1078.64	645.4
1079.02	645.6
1079.41	651.2
1079.78	638.8
1080.18	637.4
1080.55	719.6
1080.95	643.4
1081.32	637.4
1081.72	649.8
1082.09	631.6
1082.49	639.6
1082.86	645.2
1083.24	633.4
1083.63	638.6
1084.01	644
1084.38	654.2
1084.78	638.6
1085.16	651.2
1085.55	665.4
1085.93	656.6
1086.31	638.6
1086.7	680.2
1087.08	638.2
1087.46	648.8
1087.83	633.8
1088.23	657
1088.61	647.4
1088.99	646.2
1089.36	638
1089.76	641.4
1090.14	644.8
1090.52	635.4
1090.9	640
1091.27	654.8
1091.67	673.6
1092.05	647.2
1092.43	640.8
1092.81	659.4
1093.19	650.6
1093.57	647.6
1093.95	643.6
1094.35	654.4
1094.73	654.8
1095.11	637.8
1095.49	642.8
1095.87	644.2
1096.25	657.6
1096.63	655.8
1097.01	639.8
1097.39	648.2
1097.77	644.2
1098.15	648.8
1098.53	636.8
1098.91	643.6
1099.29	648
1099.68	677.6
1100.06	655.2
1100.44	639.8
1100.82	653.8
1101.18	651.2
1101.56	634.8
1101.95	638.6
1102.33	651.4
1102.71	648
1103.1	639.8
1103.48	632.2
1103.86	637
1104.22	656.2
1104.61	645.2
1104.99	635.2
1105.38	637.8
1105.76	652.6
1106.12	644.6
1106.51	680.6
1106.89	658.6
1107.26	641
1107.64	647.8
1108.03	644.6
1108.41	638.6
1108.78	642.8
1109.16	643.6
1109.55	658.2
1109.91	627.8
1110.3	632.6
1110.69	652.6
1111.05	637.6
1111.44	641
1111.8	654.6
1112.19	644.2
1112.58	652.6
1112.94	639
1113.33	642
1113.7	638.6
1114.09	631.8
1114.45	641
1114.84	643.4
1115.21	655
1115.6	639.4
1115.96	651.4
1116.35	656.2
1116.72	639.8
1117.11	656.4
1117.48	643.2
1117.85	647
1118.24	659.4
1118.6	651.6
1118.99	639
1119.36	647
1119.73	639.6
1120.12	642
1120.49	640.8
1120.86	654.8
1121.25	648.2
1121.62	631.4
1121.99	645
1122.38	657.4
1122.76	641.2
1123.13	632.4
1123.5	647.2
1123.89	665.4
1124.26	633.4
1124.63	644.4
1125	640.6
1125.4	629.8
1125.77	643
1126.14	636.2
1126.51	638.4
1126.88	643.8
1127.26	638.4
1127.63	621.2
1128.02	640.4
1128.4	641.6
1128.77	643
1129.14	640
1129.52	654.8
1129.89	644
1130.26	638.4
1130.64	638.2
1131.01	635
