#lambda/nm	C1
208.295	536
208.67	489.4
209.045	453.2
209.419	453.4
209.794	687.2
210.169	668.2
210.544	806.8
210.919	707.4
211.295	678.6
211.67	693.8
212.045	682.2
212.421	673.2
212.796	725
213.172	675.8
213.547	683
213.923	688.4
214.299	681.8
214.675	692
215.051	693.8
215.427	692.6
215.803	716
216.179	694.2
216.555	681
216.932	687
217.308	688
217.684	694.4
218.061	692
218.438	696
218.814	682.6
219.191	700
219.568	689.4
219.945	685.6
220.322	694.2
220.699	694.8
221.076	699.4
221.453	694.8
221.83	682
222.208	686.6
222.585	682.4
222.962	697.8
223.34	691.4
223.717	682.2
224.095	688.8
224.473	695.2
224.851	691
225.229	676.6
225.607	706.8
225.985	680.2
226.363	691.6
226.741	694
227.119	684.8
227.497	703.2
227.876	674.4
228.254	699.4
228.633	701
229.011	691.8
229.39	705
229.769	691.8
230.148	691.6
230.527	707
230.905	691.2
231.284	685.2
231.664	680.6
232.043	699.6
232.422	700.2
232.801	677.8
233.181	686.2
233.56	678.6
233.94	684.8
234.319	671.8
234.699	675.8
235.079	731.8
235.458	727.2
235.838	697.8
236.218	681
236.598	675.8
236.978	680
237.358	675.8
237.738	685
238.119	683.4
238.499	677
238.88	693.4
239.26	698.2
239.641	672.2
240.021	682
240.402	683.2
240.783	679
241.163	687
241.544	690.2
241.925	690
242.306	701.4
242.687	671.6
243.069	692.4
243.45	690.4
243.831	681.8
244.212	678.4
244.594	727.8
244.975	693
245.357	694.4
245.739	682.4
246.12	688.8
246.502	705.8
246.884	685.2
247.266	689.2
247.648	693
248.03	711.6
248.412	696.6
248.794	697.6
249.176	685.6
249.559	704.4
249.941	682.2
250.323	678.8
250.706	680
251.089	694.8
251.471	696
251.854	691.2
252.237	681.2
252.62	697.4
253.002	690.4
253.385	691.4
253.769	701.4
254.152	680.8
254.535	694.6
254.918	683.8
255.301	683.8
255.685	684.2
256.068	681.2
256.452	713
256.835	700.4
257.219	688.8
257.603	710.8
257.986	672
258.37	698.4
258.754	676.6
259.138	693.6
259.522	698.4
259.906	690.4
260.29	693.2
260.675	691.6
261.059	688.2
261.443	683.2
261.828	698.8
262.212	695.6
262.597	675.8
262.981	686.6
263.366	692.8
263.751	683.6
264.136	677.8
264.521	683.4
264.906	677.8
265.291	695
265.676	684.8
266.061	691.8
266.446	706.4
266.831	685.8
267.217	705.8
267.602	690.8
267.987	692.8
268.373	688.4
268.759	695.8
269.144	697.4
269.53	682.4
269.916	690
270.302	684.2
270.688	698.2
271.074	689.8
271.46	706.8
271.846	728.2
272.232	687.2
272.618	671.8
273.004	700.6
273.391	709.6
273.777	710.2
274.164	689.6
274.55	709.8
274.937	692.2
275.324	691.8
275.71	692
276.097	696.8
276.484	685.6
276.871	691
277.258	694
277.645	671.2
278.032	692.6
278.419	683.8
278.807	691.8
279.194	681.8
279.581	684.4
279.969	689.8
280.356	695.4
280.744	686
281.131	720.2
281.519	706.4
281.907	692.8
282.295	688.6
282.682	707.2
283.07	692
283.458	695.6
283.846	698.2
284.235	700.8
284.623	698
285.011	687
285.399	687.2
285.788	693.6
286.176	677.6
286.565	711.8
286.953	679
287.342	688.4
287.731	686.6
288.119	677.6
288.508	684.2
288.897	690.4
289.286	674.6
289.675	695.4
290.064	699.6
290.453	692.4
290.821	689.8
291.21	695.8
291.599	680.6
291.989	679.6
292.378	691.2
292.768	720.4
293.157	689.4
293.547	698.2
293.936	680.6
294.326	678.6
294.716	697.4
295.106	677.2
295.496	698
295.886	694.8
296.276	681.4
296.666	678.2
297.056	683.2
297.446	679.4
297.836	722.8
298.227	701.2
298.617	694.2
299.008	703.6
299.398	686
299.789	687.4
300.179	694.6
300.57	716
300.961	680.8
301.352	692.6
301.742	707
302.133	691.8
302.524	692.2
302.915	694.4
303.307	684.6
303.698	690
304.089	696.2
304.48	683.6
304.872	699.6
305.263	685.4
305.655	683
306.046	692.8
306.438	694
306.829	673
307.221	702.4
307.613	692.8
308.005	703.6
308.397	699.6
308.789	712
309.181	725.6
309.573	711
309.965	707.2
310.357	684
310.749	708
311.142	684.2
311.534	683.4
311.926	699.6
312.319	700.2
312.711	692
313.104	705.4
313.497	688.6
313.889	740.2
314.282	703.4
314.675	723.2
315.068	685.2
315.461	707.6
315.854	720.6
316.247	700.8
316.64	691.8
317.033	697.8
317.405	702.6
317.798	692.8
318.192	697.6
318.585	680
318.979	696
319.372	693.6
319.766	688.8
320.16	703.8
320.553	719.2
320.947	712.4
321.341	689.6
321.735	685.8
322.129	674.4
322.523	719
322.917	682.4
323.311	710.6
323.705	699
324.099	704.4
324.494	721.8
324.888	710.4
325.282	695.4
325.677	712.6
326.071	711
326.466	699.2
326.861	687.8
327.255	712.8
327.65	702.2
328.045	714.4
328.44	701.4
328.835	692.6
329.23	686.8
329.625	713.6
330.02	691.6
330.415	710.8
330.81	700.4
331.206	695.6
331.601	684.2
331.996	706.8
332.37	713.8
332.766	675.8
333.161	717
333.557	691
333.953	696
334.348	1136.2
334.744	691.4
335.14	682.8
335.536	687
335.932	703.6
336.328	693.4
336.724	699.6
337.12	696.4
337.516	690.6
337.913	691
338.309	700.8
338.705	686.4
339.102	701.2
339.498	683.6
339.895	706
340.291	683.8
340.688	708.6
341.085	679.8
341.481	693
341.878	685.4
342.275	713.8
342.672	683.4
343.069	686
343.466	678
343.842	699.4
344.239	682.6
344.636	698.8
345.033	688
345.431	684.4
345.828	692.6
346.225	683.6
346.623	730.2
347.02	691.4
347.418	696
347.816	702.2
348.213	682.6
348.611	700.4
349.009	687
349.407	703
349.805	686
350.203	684.8
350.601	701.8
350.999	687
351.397	765.8
351.795	695.4
352.193	705.2
352.57	701
352.969	707
353.367	688
353.766	686.4
354.164	689.4
354.563	701.6
354.961	692.2
355.36	688.6
355.759	689.8
356.158	685
356.557	688.2
356.956	671.8
357.355	670.2
357.754	685.2
358.153	692.4
358.552	717.8
358.951	687.2
359.35	705.6
359.75	689.8
360.149	675.8
360.527	674.6
360.926	671.6
361.326	691.8
361.726	679.6
362.125	680.4
362.525	697
362.925	681.2
363.325	694.2
363.724	685.4
364.124	677.6
364.524	674.6
364.924	687
365.324	689.4
365.725	662
366.125	688.4
366.525	686.6
366.904	677
367.304	665.8
367.705	709.4
368.105	704.4
368.506	688
368.906	683.4
369.307	679.4
369.708	686.6
370.108	664.8
370.509	695.6
370.91	667.6
371.311	693.4
371.712	688.6
372.113	680.4
372.514	671.8
372.894	679.8
373.295	674.8
373.696	689
374.097	697
374.499	714.6
374.9	683.6
375.301	681.6
375.703	679
376.105	675.2
376.506	683.2
376.908	685.2
377.309	685.2
377.711	678.4
378.113	679.8
378.493	678.4
378.895	692.2
379.297	702.6
379.699	670.4
380.102	688
380.504	679.8
380.906	683.8
381.308	710.2
381.71	672.2
382.113	686.4
382.515	681.4
382.918	693
383.299	679.4
383.701	688.6
384.104	696
384.507	667
384.909	690.2
385.312	670
385.715	676.4
386.118	681
386.521	673.4
386.924	707
387.327	672
387.709	671.4
388.112	659.2
388.515	682.4
388.918	679.4
389.322	685.8
389.725	683.2
390.129	704.2
390.532	681.4
390.936	674.6
391.339	678.6
391.743	685.8
392.125	663.6
392.529	692.8
392.933	690.4
393.337	682
393.74	676.6
394.144	675.4
394.548	676
394.953	675
395.357	683.4
395.761	672.6
396.144	678.4
396.548	677.4
396.952	683.4
397.357	679.4
397.761	672.8
398.166	678.8
398.57	673.2
398.975	669
399.379	680.6
399.763	735.2
400.168	692.2
400.572	676.4
400.977	675.4
401.382	714.6
401.787	699
402.192	711.6
402.597	702.4
403.002	670.2
403.386	700.8
403.791	699
404.197	682.6
404.602	680
405.007	680.4
405.413	676.4
405.818	687.4
406.224	675.6
406.608	679.6
407.014	671
407.42	698
407.825	667.6
408.231	682.4
408.637	680.2
409.043	708.2
409.449	666.4
409.834	677.8
410.24	679.8
410.646	687.4
411.052	687.2
411.458	685.4
411.865	695.2
412.271	692
412.677	692.2
413.062	692.8
413.469	676.8
413.875	714.4
414.282	701.2
414.689	687.2
415.095	684
415.502	668.2
415.888	683.8
416.294	668.2
416.701	730.8
417.108	679.2
417.515	694.8
417.923	679.6
418.33	696
418.715	700.4
419.123	682
419.53	678.4
419.937	683.6
420.345	704
420.752	688
421.16	695.8
421.546	688.2
421.953	689.6
422.361	679.8
422.769	680.4
423.177	681.8
423.585	709.2
423.992	703.4
424.379	701.6
424.787	701
425.195	712.6
425.603	680.6
426.011	700.8
426.419	696.8
426.806	693
427.214	699.6
427.623	696.2
428.031	700
428.44	686.2
428.848	696.8
429.235	697.8
429.644	696.4
430.053	689.8
430.461	706
430.87	721.6
431.279	699.2
431.666	688.6
432.075	683.6
432.484	692.6
432.893	686.4
433.302	711
433.711	749.6
434.099	694.8
434.508	676
434.918	670.4
435.327	691
435.737	692.8
436.125	688.8
436.534	691.2
436.944	688.6
437.353	693.8
437.763	707.8
438.173	678.4
438.561	696.6
438.971	667.8
439.381	680
439.791	693.4
440.201	656.6
440.589	688.8
440.999	685.6
441.409	686.4
441.819	662.8
442.23	698.6
442.619	691.4
443.029	679
443.439	680.2
443.85	688.8
444.26	688.8
444.649	691.4
445.06	675.8
445.471	682.2
445.881	680
446.292	691.4
446.682	709.4
447.092	666.8
447.503	741
447.914	681
448.325	681.6
448.715	684.8
449.126	670.4
449.537	677.8
449.948	676.8
450.338	684
450.75	690.8
451.161	683.4
451.572	686.2
451.984	670.6
452.374	659.4
452.786	682
453.197	687.8
453.609	693
453.999	664.4
454.411	666
454.823	693.2
455.235	683
455.647	684.6
456.037	685
456.449	668.2
456.862	683
457.274	681.8
457.665	673.8
458.077	696.6
458.489	719.2
458.902	683
459.293	679.4
459.705	680.6
460.118	670.2
460.53	685
460.921	677.6
461.334	689.8
461.747	683.6
462.16	689.2
462.551	695.4
462.964	691.8
463.377	665.4
463.79	673.6
464.182	691.6
464.595	676.2
465.008	677.8
465.421	679.8
465.813	666.8
466.226	687.2
466.64	676.2
467.053	726.6
467.445	690.4
467.859	692.8
468.272	676.6
468.686	691.6
469.078	680.6
469.492	669.2
469.906	680.4
470.298	682.4
470.712	668.8
471.126	742.6
471.54	660.4
471.933	670.2
472.347	674
472.761	672
473.175	667.2
473.568	665.8
473.982	663.8
474.397	676.2
474.79	677.2
475.204	685
475.619	679.8
476.033	678.8
476.426	673.2
476.841	672
477.256	707.2
477.649	666
478.064	669
478.479	671.8
478.872	670.4
479.287	659.4
479.702	670.8
480.118	672.4
480.511	668.8
480.927	678.2
481.342	671.8
481.736	677
482.151	670.4
482.566	687.8
482.96	677
483.376	692.6
483.792	671.8
484.186	675.6
484.602	680.6
485.017	673.4
485.412	674.2
485.827	678
486.243	676
486.638	703.4
487.054	682
487.47	693.4
487.865	676.4
488.281	677.6
488.697	669.8
489.092	669.8
489.508	665.8
489.925	680.4
490.32	669.6
490.736	684
491.153	689.2
491.548	686.2
491.964	685.2
492.381	665.6
492.776	678.8
493.193	679
493.61	679.6
494.006	671.8
494.422	691.8
494.84	661
495.235	680.6
495.652	680.8
496.069	676.2
496.465	668.8
496.883	672
497.3	694.8
497.696	664.8
498.113	681.6
498.509	656
498.927	656.2
499.344	671
499.741	669
500.158	677.4
500.576	687.4
500.973	674.4
501.39	669.2
501.787	660.4
502.205	678.4
502.623	666
503.02	664.8
503.438	669.6
503.856	669.2
504.253	670.2
504.671	672.4
505.068	673.6
505.486	676
505.905	692
506.302	677
506.72	689.4
507.118	661.2
507.536	673.6
507.955	674.6
508.352	679.6
508.771	681.2
509.169	682.8
509.587	666.4
510.006	675.4
510.404	664
510.823	670.4
511.221	671.4
511.64	674.4
512.038	682.6
512.457	669.6
512.877	667.8
513.275	663.8
513.694	677.2
514.092	671
514.512	674.6
514.91	675.2
515.33	670
515.749	676
516.148	669.6
516.568	679.4
516.966	670.6
517.386	667.4
517.785	667.8
518.205	664.6
518.603	666.2
519.024	661.6
519.444	674.2
519.843	678.6
520.263	679
520.662	683.2
521.082	670.2
521.481	671.6
521.902	669.8
522.301	668.8
522.722	670.8
523.121	670.2
523.542	661
523.963	673
524.362	673.6
524.783	671
525.183	679.6
525.604	672.4
526.003	666.4
526.425	664.2
526.824	678
527.246	678.2
527.646	681.8
528.067	671.8
528.467	675.4
528.888	683.4
529.289	670.4
529.71	673.8
530.11	668.6
530.532	668
530.932	663.2
531.354	658.6
531.755	717.2
532.176	677
532.577	676
532.999	673.6
533.4	669.6
533.822	681
534.223	677.4
534.645	672.8
535.046	668.2
535.468	678
535.869	687.2
536.292	665.8
536.693	710.8
537.115	671.4
537.516	672.2
537.939	668.6
538.34	696.6
538.742	688.2
539.165	680.4
539.566	676.2
539.989	663.6
540.391	676
540.814	673.8
541.216	681.8
541.639	666.4
542.041	684.8
542.464	659.8
542.866	660.4
543.268	655.6
543.691	682.2
544.093	690.4
544.517	695.2
544.919	658.4
545.343	702
545.745	660.2
546.147	670.2
546.571	656
546.974	655
547.398	668.8
547.8	681.4
548.224	665
548.627	658.2
549.03	669.2
549.454	656.6
549.857	660
550.281	656.4
550.684	649.8
551.087	683.2
551.512	675.6
551.915	668.6
552.34	657.2
552.743	661.2
553.146	673.4
553.571	667.8
553.975	683.8
554.399	652
554.803	729.4
555.207	672.4
555.632	671.2
556.036	667.8
556.461	660.4
556.865	681.4
557.268	665.6
557.694	665.8
558.098	678.6
558.502	666.4
558.927	658.4
559.332	665.8
559.736	670.6
560.162	672.4
560.566	669
560.992	667.2
561.396	675.6
561.801	665.6
562.227	678.2
562.631	675
563.036	664.8
563.462	687.6
563.867	677.6
564.272	648.4
564.698	678.6
565.103	647
565.508	688
565.935	667.8
566.34	671.2
566.745	687
567.172	669.4
567.577	696
567.982	680.6
568.409	674.4
568.815	660.8
569.22	671.4
569.626	680.2
570.053	658.2
570.459	676.4
570.865	678.2
571.292	679.2
571.698	671.8
572.104	651.8
572.531	665.8
572.937	675
573.343	675.6
573.75	672.4
574.177	672.4
574.583	679.4
574.99	667.8
575.396	673.4
575.824	669
576.231	673.2
576.637	667.4
577.065	698.8
577.472	656.2
577.879	665.2
578.286	687.8
578.714	658.2
579.121	664.2
579.528	668.2
579.935	678.8
580.364	660.6
580.771	646.4
581.178	655.4
581.585	671.6
582.014	671.6
582.421	663.8
582.829	662.8
583.236	682.4
583.644	655.6
584.073	666.6
584.481	669.2
584.889	662.2
585.296	670.6
585.726	675.2
586.134	658.8
586.542	669.4
586.95	682.8
587.358	652.2
587.787	664.8
588.196	657.6
588.604	677.6
589.012	675.6
589.421	661
589.851	660
590.259	665.8
590.668	669.4
591.076	720.8
591.485	661
591.894	672.8
592.324	685.4
592.733	681
593.142	650.6
593.551	662.6
593.96	705.8
594.369	665.4
594.8	662.2
595.209	676.4
595.618	652.4
596.028	666
596.437	653.6
596.847	659.4
597.256	671.6
597.687	667.2
598.097	674
598.507	656.8
598.917	670.8
599.327	668.2
599.736	671.2
600.146	685
600.556	674.4
600.988	674.6
601.398	666.2
601.808	671.6
602.219	645.6
602.629	664
603.039	661.6
603.45	692.2
603.86	669.8
604.271	681.6
604.703	669.8
605.114	667.8
605.525	670.2
605.935	676.2
606.346	689
606.757	661.6
607.168	666.8
607.579	662
607.99	678
608.402	667.4
608.813	670.2
609.224	662.8
609.636	647.8
610.047	662.6
610.48	665.4
610.892	677.8
611.303	679.8
611.715	670
612.127	658.2
612.539	663.8
612.95	664.2
613.362	658.2
613.774	652.2
614.186	663.2
614.599	665
615.011	664.8
615.423	660
615.835	657.6
616.248	660.2
616.66	661.4
617.073	649.2
617.485	657.2
617.898	668.8
618.311	658.8
618.723	660
619.136	701.2
619.549	680.2
619.962	683
620.375	662.4
620.788	677.2
621.201	654.8
621.614	676.2
622.028	656.8
622.441	666.2
622.854	672.2
623.268	654.2
623.681	672.6
624.095	661.6
624.509	676.4
624.922	672.8
625.336	640.8
625.728	665
626.142	663.6
626.556	684.2
626.97	674.6
627.384	658
627.799	674.4
628.213	681
628.627	665.2
629.041	656.6
629.456	667
629.87	664.4
630.285	683.4
630.699	676.2
631.093	660.2
631.507	664
631.922	668.2
632.337	676.2
632.752	653.2
633.167	662.8
633.582	660.4
633.997	659.8
634.412	660.8
634.806	654
635.221	653.6
635.637	684.6
636.052	650.8
636.468	668.2
636.883	684.2
637.299	666.6
637.715	651.6
638.109	657
638.525	653
638.941	673.2
639.357	667
639.773	681.8
640.189	665.2
640.584	663.8
641	664.6
641.416	665.2
641.832	663.6
642.249	659.2
642.665	662.4
643.06	675
643.477	676
643.894	651.6
644.31	663.4
644.727	664.2
645.123	660
645.54	652.6
645.957	663.4
646.374	678.2
646.77	665.4
647.187	692.4
647.604	650.2
648.021	658.2
648.439	656
648.835	665.6
649.252	665
649.67	666.2
650.088	657.2
650.484	664.4
650.902	667.6
651.32	664.4
651.738	664.2
652.134	662.8
652.552	677
652.971	678.8
653.389	651.6
653.786	678.2
654.204	683.6
654.622	654
655.019	665.8
655.438	666.2
655.857	670.4
656.275	673.2
656.673	656.6
657.091	739.6
657.51	653.4
657.908	677.8
658.327	671
658.746	658.6
659.144	661.4
659.563	669.2
659.982	661.2
660.38	647.6
660.8	663
661.219	667.2
661.617	669
662.037	665.8
662.457	690.2
662.855	653.6
663.275	703.8
663.695	669.6
664.094	660
664.514	669
664.934	658.6
665.333	671
665.753	657.6
666.152	651.8
666.572	655.8
666.993	665.4
667.392	657.2
667.812	664.8
668.212	663
668.632	686.2
669.053	668.2
669.453	661.2
669.874	663.8
670.273	669
670.694	656.2
671.116	671.4
671.515	674
671.937	666
672.337	669.4
672.758	670
673.158	675.4
673.58	653
673.98	668.8
674.402	682
674.824	671.4
675.224	652
675.646	655
676.047	658.2
676.469	667.6
676.869	667
677.292	665
677.693	659
678.115	658.6
678.516	673.4
678.939	660
679.34	658
679.762	672
680.164	664.4
680.586	647
680.988	667.4
681.411	684.6
681.812	648.6
682.236	653
682.637	660.2
683.061	656.8
683.462	657.4
683.864	652.6
684.288	667.8
684.69	640
685.114	667.8
685.516	668.4
685.94	653
686.342	668.2
686.766	650.2
687.168	655.6
687.571	682.2
687.995	658.4
688.398	641.8
688.822	650.2
689.225	682.4
689.628	682
690.052	657.8
690.456	674.2
690.88	662.6
691.284	653
691.687	667.6
692.112	651.4
692.515	657.6
692.919	661.6
693.344	664.6
693.747	655.4
694.173	660.2
694.577	675.4
694.98	669
695.406	661.4
695.81	660.8
696.214	668
696.64	660
697.044	672
697.448	668.4
697.874	665.4
698.279	660.6
698.684	650.2
699.11	655.8
699.514	662.4
699.919	653.4
700.324	648.2
700.75	660.2
701.156	663.8
701.561	675.4
701.987	666.2
702.393	669
702.798	669.6
703.203	658.8
703.63	656.4
704.036	648.8
704.442	662
704.847	648
705.274	658.8
705.68	662.4
706.086	675
706.492	654.6
706.92	657.2
707.326	671.2
707.732	651.2
708.139	655.2
708.545	650.2
708.973	654
709.38	657.8
709.786	632.8
710.193	676.4
710.6	658.6
711.028	647.8
711.435	664.8
711.842	663.6
712.249	660.8
712.656	662.4
713.064	672.8
713.492	656.2
713.9	663.8
714.307	672
714.715	668.8
715.123	657.6
715.53	669.6
715.938	672.2
716.367	657.6
716.775	660.2
717.184	651
717.592	664
718	672.6
718.408	692.2
718.816	708.2
719.225	659.8
719.633	666.4
720.042	654.4
720.472	658.6
720.881	679.4
721.29	667.8
721.699	648.6
722.108	664.4
722.517	660.4
722.926	651.6
723.335	672.6
723.744	660.2
724.154	665.2
724.563	666
724.973	657.4
725.382	656.8
725.792	654
726.202	657
726.612	685.4
727.022	664.4
727.432	652.6
779.813	655.8
780.223	711.2
780.634	654.6
781.044	653.6
781.454	657.2
781.865	674.4
782.276	653.8
782.686	667.6
783.097	658.6
783.508	667.2
783.919	661.4
784.33	677.6
784.741	676.8
785.152	651.2
785.563	642.4
785.974	651.8
786.386	664.8
786.776	649.6
787.188	657.4
787.599	643.2
788.011	669.8
788.423	668.6
788.835	658
789.247	651.6
789.659	651.4
790.071	646.4
790.483	707.8
790.874	652.6
791.286	663.6
791.699	663.2
792.111	654
792.524	652.2
792.937	659.2
793.349	649.8
793.741	659.8
794.154	652.6
794.567	684.8
794.98	656
795.393	643.4
795.785	682.4
796.198	658.4
796.612	658.6
797.026	642.8
797.439	641.8
797.831	654.6
798.245	648.4
798.659	654.6
799.073	654.8
799.487	652.2
799.88	657
800.294	664.8
800.708	664.4
801.123	657.6
801.516	673.2
801.93	641
802.345	640.2
802.76	663.2
803.153	670.4
803.568	683.2
803.983	672.6
804.377	649.8
804.792	639.2
805.207	638.2
805.601	662.4
806.016	691
806.432	648.6
806.826	691.6
807.242	661.6
807.658	660.4
808.052	644.2
808.468	651.8
808.884	653.8
809.279	663.2
809.695	678
810.111	687.2
810.506	657
810.922	678.4
811.339	653
811.734	666.8
812.151	657.4
812.546	651.2
812.963	652.2
813.38	667.2
813.776	659.2
814.193	681.8
814.589	660.2
815.006	659.8
815.402	656.2
815.82	656.6
816.237	657.6
816.633	662.8
817.051	655
817.448	661.6
817.866	644.2
818.262	680.6
818.68	658.4
819.077	648.2
819.495	663.2
819.892	705
820.311	654
820.708	652
821.127	653
821.524	669.8
821.943	660.8
822.34	680.6
822.759	658
823.157	651.8
823.576	676.2
823.974	666.6
824.393	730
824.791	655
825.189	649.4
825.609	657.2
826.007	651
826.427	648.4
826.826	646.6
827.246	663.2
827.644	644.2
828.043	673.2
828.463	654
828.862	661.4
829.261	661.8
829.682	643
830.081	658.6
830.502	652.6
830.901	670
831.301	659.2
831.722	642.8
832.121	661
832.521	656.8
832.943	666
833.342	663.4
833.742	644.6
834.164	659.6
834.564	646
834.965	654.2
835.386	656.4
835.787	643
836.188	651.4
836.588	654.2
837.01	646.6
837.411	647.4
837.812	666.4
838.213	660
838.636	655
839.037	725.8
839.438	650.2
839.84	647.2
840.263	664.2
840.664	659.2
841.066	657.2
841.468	662
841.891	650.8
842.293	668.4
842.695	658.6
843.098	663.2
843.5	655
843.902	659.6
844.326	668.2
844.729	657.4
845.131	673
845.534	664.6
845.937	668.8
846.34	676.2
846.764	650.4
847.167	663.6
847.571	647.8
847.974	659
848.377	656.2
848.781	709.4
849.184	672.2
849.588	655.6
849.992	652.8
850.396	656.6
850.821	671.8
851.225	664.4
851.63	650.8
852.034	684.4
852.438	657.6
852.843	787
853.247	644.6
853.652	656.4
854.057	682.8
854.462	661.8
854.867	659.6
855.272	690.2
855.677	665.8
856.082	647.6
856.487	641
856.893	660.2
857.298	649.6
857.704	648.2
858.11	665
858.516	668.4
858.922	664
859.328	658.2
859.734	652.8
860.14	659
860.525	661.4
860.931	652.2
861.338	648.6
861.745	670
862.151	660.8
862.558	662.4
862.965	648.2
863.372	647.8
863.779	648.2
864.186	675.2
864.572	654.8
864.98	672.2
865.387	697
865.795	648
866.203	662
866.61	644
867.018	675.2
867.405	669.8
867.813	656.6
868.221	653
868.63	647
869.038	664
869.425	701.8
869.834	653.6
870.243	647.2
870.652	653.8
871.039	650.4
871.448	653.2
871.857	668.6
872.266	653.8
872.654	651.4
873.064	653.2
873.473	659
873.883	646
874.271	644.4
874.681	666.2
875.091	649.2
875.48	662.4
875.89	672.8
876.3	650
876.689	635.6
877.1	647.4
877.51	656.4
877.9	680.2
878.31	656.6
878.721	692.8
879.111	660.6
879.522	646.6
879.933	649
880.323	643.8
880.734	639.4
881.125	655.6
881.536	650
881.948	638.4
882.338	648.4
882.75	659
883.141	653.2
883.553	663.6
883.944	681.2
884.356	664.6
884.769	648
885.16	652.6
885.573	650.6
885.964	646.8
886.377	655.2
886.768	649.6
887.181	657.4
887.573	646.4
887.987	664.2
888.378	673.2
888.792	656.4
889.184	723.2
889.598	645
889.99	654.4
890.383	652.4
890.797	641.8
891.19	664.6
891.604	643.6
891.997	657.8
892.411	647.6
892.805	648.6
893.198	649
893.613	640.8
894.006	657.2
894.421	649.2
894.815	653.2
895.209	650.6
895.624	705.8
896.018	675.8
896.412	650.4
896.828	657.6
897.222	651.2
897.617	656.4
898.033	679.6
898.427	659.4
898.822	654.6
899.239	643
899.634	644.6
900.029	671.8
900.424	644.4
900.841	644
901.236	665
901.632	658.4
902.027	717.8
902.445	663.2
902.841	654
903.237	650.6
903.633	664
904.05	658.8
904.447	661.6
904.843	662.8
905.24	654.6
905.636	640.8
906.033	661.4
906.451	658.4
906.848	638.8
907.246	647.4
907.643	642.2
908.04	667.8
908.438	667
908.835	663.8
909.254	652
909.652	662.6
910.05	653.2
910.448	648.6
910.846	659.4
911.244	651.2
911.643	658.8
912.041	653.8
912.44	671.4
912.839	641
913.237	650.6
913.636	640.2
914.035	657.6
914.434	645.4
914.834	655
915.233	659.2
915.633	641.2
916.032	651.6
916.432	642.4
916.832	669
917.232	651
917.632	633
918.032	663.4
918.432	659
918.833	645.2
919.233	649.8
919.634	648.4
920.035	657.8
920.436	651
920.837	652.4
921.238	647
921.639	645.4
922.019	658
922.42	658.6
922.822	658
923.224	653.8
923.625	658.6
924.027	652.4
924.429	678
924.81	660.4
925.212	658.6
925.615	659.6
926.017	652.4
926.42	671.6
926.801	663
927.204	654.2
927.607	666.6
928.01	673
928.413	650.6
928.795	642
929.199	648.8
929.602	651
930.006	645.2
930.388	649.2
930.792	661.2
931.196	648.4
931.579	695.4
931.983	642.2
932.388	706.4
932.771	647.6
933.176	644.2
933.58	667.6
933.964	662.2
934.369	635
934.774	658
935.158	653.8
935.563	652.6
935.947	644.8
936.353	657
936.759	653
937.143	649
937.549	656.4
937.934	664.4
938.34	680.8
938.746	633.8
939.131	646.8
939.538	648.4
939.923	662
940.33	639.2
940.716	650.8
941.123	657.4
941.508	652
941.916	674.8
942.302	657.8
942.709	648.8
943.096	648.4
943.503	668
943.89	651.8
944.298	650.6
944.685	682.8
945.072	651
945.48	668.8
945.867	651.4
946.276	638.4
946.663	670.8
947.051	671.6
947.46	670.4
947.848	655.8
948.257	641.6
948.645	652.2
949.033	652.4
949.443	658.4
949.831	691.8
950.22	637
950.63	663
951.018	682.8
951.407	648.8
951.796	652.8
952.207	665.8
952.596	658.2
952.985	647.6
953.375	701.2
953.786	653.4
954.176	648
954.566	659.8
954.956	638
955.367	644.2
955.758	679.8
956.148	638
956.539	664.8
956.929	650.6
957.341	638.6
957.732	650.6
958.123	656.6
958.515	641.6
958.906	659.2
959.297	648.4
959.689	654.2
960.102	640
960.494	649.6
960.886	647.8
961.278	637.8
961.67	670
962.062	699.8
962.455	657.2
962.847	638.6
963.24	647.2
963.633	642.8
964.026	637.8
964.419	659.2
964.812	657.8
965.206	643.2
965.599	656.6
965.993	653.2
966.386	641.6
966.78	665
967.174	667
967.569	640.4
967.963	658.2
968.357	642.8
968.752	646.6
969.146	652.4
969.541	648.4
969.936	643
970.331	661.6
970.705	655.2
971.1	650.2
971.496	653.4
971.892	643
972.287	645.2
972.683	652.2
973.079	648.2
973.454	657
973.85	652.2
974.247	661.4
974.643	685
975.04	652
975.415	649.6
975.812	637.2
976.209	651.8
976.607	644
976.982	667
977.38	682.6
977.778	650.4
978.175	648.4
978.552	652.8
978.95	658.4
979.348	653.4
979.725	698
980.123	652.2
980.522	650.8
980.899	643.4
981.298	643.8
981.697	646
982.075	646
982.474	649.4
982.852	651.4
983.251	655
983.651	637.6
984.029	658.6
984.429	647
984.808	640.6
985.208	646
985.609	638.4
985.987	635.4
986.388	644
986.768	654.6
987.168	645.6
987.548	653.4
987.949	657.2
988.329	652.8
988.731	639
989.111	644.4
989.491	642.4
989.893	651
990.273	657
990.676	643.2
991.057	636.2
991.459	658.6
991.84	648.6
992.221	637.6
992.624	678.6
993.006	659.8
993.388	649.4
993.791	659.6
994.173	658.6
994.576	686.6
994.959	635
995.341	654.6
995.724	651
996.128	646.2
996.511	656.6
996.894	640.6
997.298	646.4
997.681	657.8
998.065	644.6
998.448	654.8
998.854	660.8
999.237	644.4
999.621	660.2
1000.01	676.4
1000.39	655
1000.8	639.4
1001.18	655.8
1001.56	652.6
1001.95	659.2
1002.33	657.4
1002.72	642.2
1003.13	644.4
1003.51	650.8
1003.9	632.2
1004.28	669.8
1004.67	640.2
1005.06	651.2
1005.44	684
1005.83	632.2
1006.21	637.6
1006.6	641.6
1006.99	663.6
1007.37	653.2
1007.76	641.8
1060.12	639
1060.51	637.8
1060.89	657.8
1061.28	660.4
1061.67	655.8
1062.06	652.6
1062.45	646.8
1062.83	637.2
1063.22	659.4
1063.61	689.6
1064	657.6
1064.39	658.8
1064.78	642.4
1065.14	669.2
1065.53	652.2
1065.92	644.6
1066.31	649.6
1066.7	654.8
1067.09	661.8
1067.46	664.2
1067.85	646.8
1068.24	643.6
1068.63	649.2
1069.02	651.4
1069.39	660.8
1069.78	645.4
1070.17	646.6
1070.57	641.8
1070.93	654.8
1071.33	645.2
1071.72	652.8
1072.11	644
1072.48	638
1072.87	655.8
1073.26	648.4
1073.64	645.6
1074.03	637
1074.4	643.6
1074.79	651
1075.19	657.4
1075.56	657
1075.95	657.8
1076.34	652.2
1076.72	643.8
1077.11	663.2
1077.48	662.8
1077.88	656.6
1078.25	647.8
1078.64	662
1079.02	654
1079.41	653.4
1079.78	649.6
1080.18	643.2
1080.55	742.2
1080.95	642.8
1081.32	643.2
1081.72	656.8
1082.09	654.6
1082.49	639.2
1082.86	651
1083.24	642.6
1083.63	641.6
1084.01	653.2
1084.38	669.2
1084.78	634.2
1085.16	655
1085.55	658.8
1085.93	657.4
1086.31	636.2
1086.7	674.8
1087.08	645
1087.46	655.4
1087.83	636.8
1088.23	660
1088.61	646
1088.99	646.2
1089.36	643.2
1089.76	643
1090.14	650
1090.52	648
1090.9	641.4
1091.27	652
1091.67	675.4
1092.05	657.8
1092.43	643.8
1092.81	658
1093.19	657
1093.57	648
1093.95	644.6
1094.35	662
1094.73	658.6
1095.11	645.6
1095.49	645
1095.87	646.2
1096.25	659
1096.63	656.2
1097.01	639.4
1097.39	655.6
1097.77	653.6
1098.15	652
1098.53	640.6
1098.91	647.8
1099.29	647.4
1099.68	674.4
1100.06	659.6
1100.44	656.2
1100.82	654.2
1101.18	663
1101.56	649.2
1101.95	653.2
1102.33	649.6
1102.71	645.4
1103.1	645
1103.48	638.4
1103.86	645.2
1104.22	661.4
1104.61	646
1104.99	652.8
1105.38	635.4
1105.76	647.4
1106.12	649.8
1106.51	693.6
1106.89	653
1107.26	645
1107.64	646.4
1108.03	647.8
1108.41	652.4
1108.78	642.4
1109.16	646.6
1109.55	655.6
1109.91	633.4
1110.3	629
1110.69	656.8
1111.05	643
1111.44	644.8
1111.8	654.2
1112.19	659.2
1112.58	659.2
1112.94	650.2
1113.33	640.8
1113.7	649.4
1114.09	643.6
1114.45	642.4
1114.84	655.8
1115.21	644.2
1115.6	648.8
1115.96	649.4
1116.35	652.4
1116.72	640
1117.11	652.6
1117.48	638
1117.85	647.2
1118.24	663
1118.6	652.2
1118.99	654.4
1119.36	659.8
1119.73	649.6
1120.12	646.8
1120.49	632.4
1120.86	658.4
1121.25	641.8
1121.62	636.8
1121.99	641.6
1122.38	645.6
1122.76	642
1123.13	643.4
1123.5	653.4
1123.89	654.8
1124.26	638.8
1124.63	652
1125	644
1125.4	637
1125.77	644.2
1126.14	629.2
1126.51	646
1126.88	653.2
1127.26	635.6
1127.63	620.4
1128.02	647.8
1128.4	633.4
1128.77	641.4
1129.14	645.8
1129.52	646.8
1129.89	652.8
1130.26	637.2
1130.64	642.2
1131.01	638
