#lambda/nm	C1
208.295	534.2
208.67	491.2
209.045	455.4
209.419	454.6
209.794	691.2
210.169	666.8
210.544	817.6
210.919	692.8
211.295	685
211.67	686.6
212.045	682.2
212.421	685
212.796	732.8
213.172	682.2
213.547	683.4
213.923	684.8
214.299	676
214.675	692.2
215.051	689.8
215.427	701
215.803	706.2
216.179	696.6
216.555	676
216.932	691.4
217.308	691.2
217.684	683.6
218.061	693.6
218.438	694.8
218.814	681.8
219.191	697
219.568	682.8
219.945	683
220.322	690.4
220.699	695.2
221.076	699.8
221.453	693
221.83	682.4
222.208	683.2
222.585	685.6
222.962	690.6
223.34	689
223.717	689.8
224.095	683.6
224.473	687
224.851	680
225.229	671
225.607	705.6
225.985	684
226.363	684.4
226.741	691
227.119	692.4
227.497	706.8
227.876	665.6
228.254	693.2
228.633	697.6
229.011	693
229.39	692
229.769	689
230.148	691
230.527	714.6
230.905	685
231.284	695.4
231.664	680.8
232.043	703.6
232.422	700.2
232.801	686.8
233.181	690.2
233.56	687.8
233.94	691.6
234.319	671.4
234.699	682
235.079	734.4
235.458	738.4
235.838	703.8
236.218	680
236.598	678.6
236.978	676.4
237.358	686.6
237.738	674.8
238.119	701.2
238.499	671.6
238.88	682.4
239.26	704.8
239.641	684
240.021	684.2
240.402	686.4
240.783	684
241.163	683.2
241.544	692.4
241.925	689.2
242.306	708
242.687	675.2
243.069	680.8
243.45	693.6
243.831	682.8
244.212	676
244.594	727.2
244.975	695
245.357	683.4
245.739	682
246.12	689.8
246.502	697
246.884	688.4
247.266	692.8
247.648	689.4
248.03	708.2
248.412	690
248.794	689.4
249.176	686.2
249.559	700.2
249.941	682
250.323	676.4
250.706	689.4
251.089	686.8
251.471	697.2
251.854	685.6
252.237	685.2
252.62	701.8
253.002	687
253.385	682.6
253.769	706.8
254.152	689.8
254.535	694.4
254.918	672.8
255.301	685.6
255.685	689.4
256.068	678
256.452	707.8
256.835	698
257.219	701.2
257.603	704.4
257.986	676.2
258.37	698.2
258.754	677.2
259.138	696.6
259.522	695.2
259.906	686.2
260.29	685.2
260.675	680.8
261.059	685.4
261.443	669.4
261.828	685.4
262.212	694.4
262.597	674.8
262.981	682
263.366	695
263.751	687.6
264.136	672.8
264.521	673.4
264.906	681.4
265.291	696.8
265.676	683
266.061	690.8
266.446	702.4
266.831	679.6
267.217	704.4
267.602	680.4
267.987	685.4
268.373	677
268.759	701.8
269.144	690.8
269.53	686
269.916	680.4
270.302	687.8
270.688	693.6
271.074	694.8
271.46	706.2
271.846	718.2
272.232	687.8
272.618	687.4
273.004	694.4
273.391	714
273.777	700
274.164	696
274.55	707
274.937	690.4
275.324	684.8
275.71	697.2
276.097	700.2
276.484	676
276.871	687.4
277.258	687.4
277.645	678.2
278.032	687.6
278.419	683.2
278.807	699
279.194	676.6
279.581	685.4
279.969	692.6
280.356	696.6
280.744	689.8
281.131	719.4
281.519	697.8
281.907	685.4
282.295	681.4
282.682	688
283.07	690.6
283.458	687.6
283.846	709.6
284.235	704.2
284.623	701
285.011	675.2
285.399	683.2
285.788	692.8
286.176	684.4
286.565	712
286.953	691
287.342	684.2
287.731	683.6
288.119	691.2
288.508	683
288.897	691.6
289.286	674.6
289.675	688
290.064	700
290.453	676.2
290.821	690
291.21	706
291.599	682.8
291.989	686.4
292.378	700.2
292.768	710.8
293.157	703.8
293.547	703
293.936	691
294.326	690.6
294.716	703.4
295.106	693.2
295.496	696
295.886	699.4
296.276	691.2
296.666	680.4
297.056	684.6
297.446	679.4
297.836	717.8
298.227	698
298.617	690.2
299.008	707.4
299.398	684.8
299.789	686.2
300.179	692.4
300.57	706
300.961	679.6
301.352	687
301.742	699
302.133	693.8
302.524	689.8
302.915	680.2
303.307	691.6
303.698	700.8
304.089	698.8
304.48	693.2
304.872	690.8
305.263	697.2
305.655	681.8
306.046	700.6
306.438	696
306.829	682
307.221	696
307.613	691.4
308.005	694.4
308.397	709.4
308.789	714.4
309.181	720.4
309.573	716.4
309.965	704
310.357	693.4
310.749	703
311.142	681
311.534	678.4
311.926	707
312.319	690.8
312.711	676.4
313.104	702.8
313.497	683
313.889	741.2
314.282	712.2
314.675	722.4
315.068	698.2
315.461	697.4
315.854	726.2
316.247	698.4
316.64	695.8
317.033	692.6
317.405	701
317.798	690
318.192	705.6
318.585	682.4
318.979	693.8
319.372	683.4
319.766	687.8
320.16	698.8
320.553	708.2
320.947	719.2
321.341	687.8
321.735	694.2
322.129	678.6
322.523	718.6
322.917	683.4
323.311	707.4
323.705	707.6
324.099	699.4
324.494	713.6
324.888	696.8
325.282	702.4
325.677	705.6
326.071	700.6
326.466	711.2
326.861	701.8
327.255	710.4
327.65	714.2
328.045	715.2
328.44	693
328.835	690.4
329.23	698.2
329.625	711
330.02	689.2
330.415	718.4
330.81	694.4
331.206	692.8
331.601	683
331.996	697.8
332.37	719
332.766	680.8
333.161	710.2
333.557	687.2
333.953	696.6
334.348	1132
334.744	691.8
335.14	686.6
335.536	688.4
335.932	706.8
336.328	690.6
336.724	706.4
337.12	688.4
337.516	701.4
337.913	702
338.309	715
338.705	695.4
339.102	705.2
339.498	696.4
339.895	707
340.291	688.4
340.688	701.6
341.085	687.2
341.481	686.8
341.878	694.6
342.275	720.8
342.672	683.4
343.069	696.8
343.466	678
343.842	705.2
344.239	686.2
344.636	690.4
345.033	677.4
345.431	682.8
345.828	689.6
346.225	687
346.623	725.4
347.02	687.8
347.418	695.2
347.816	718.4
348.213	680
348.611	696
349.009	682.2
349.407	701.2
349.805	673.2
350.203	676
350.601	700.2
350.999	685.8
351.397	750
351.795	690.8
352.193	699.2
352.57	696
352.969	699.8
353.367	676.2
353.766	681.2
354.164	681.8
354.563	701.4
354.961	687.8
355.36	686.6
355.759	684.4
356.158	678.6
356.557	685.2
356.956	671.4
357.355	674
357.754	683
358.153	691.2
358.552	715.2
358.951	682.2
359.35	697.2
359.75	684
360.149	668.2
360.527	670
360.926	691.2
361.326	684.2
361.726	678.4
362.125	679
362.525	689.4
362.925	687.8
363.325	690.6
363.724	687.4
364.124	672.8
364.524	679.6
364.924	691.2
365.324	698.2
365.725	670.6
366.125	689.8
366.525	681.6
366.904	669.8
367.304	658
367.705	706.8
368.105	699.2
368.506	684
368.906	686.6
369.307	679.8
369.708	686
370.108	663
370.509	689.8
370.91	669.8
371.311	681.8
371.712	678.4
372.113	679.8
372.514	657.8
372.894	669.4
373.295	678.4
373.696	698
374.097	691.6
374.499	719
374.9	690.6
375.301	668.8
375.703	686.2
376.105	672.2
376.506	680.2
376.908	696.8
377.309	681.4
377.711	683.4
378.113	680.4
378.493	680.2
378.895	675.8
379.297	693.2
379.699	671.8
380.102	689
380.504	682
380.906	672.2
381.308	704.6
381.71	682
382.113	691.6
382.515	682.4
382.918	687.6
383.299	683.4
383.701	690
384.104	684.8
384.507	660.2
384.909	676.6
385.312	665.8
385.715	658.8
386.118	670.8
386.521	668.2
386.924	689.8
387.327	677.8
387.709	659.6
388.112	657.6
388.515	678.8
388.918	674.2
389.322	679.4
389.725	674.4
390.129	705.8
390.532	671
390.936	676.6
391.339	677.2
391.743	675.6
392.125	668.2
392.529	692
392.933	699
393.337	688.6
393.74	685.2
394.144	685.2
394.548	672
394.953	672.4
395.357	687
395.761	675.4
396.144	678
396.548	685.2
396.952	684.8
397.357	689.6
397.761	677.8
398.166	680
398.57	680.4
398.975	669.2
399.379	685.6
399.763	738.2
400.168	683.8
400.572	682.4
400.977	680
401.382	705
401.787	691.8
402.192	704
402.597	692.6
403.002	670.8
403.386	697.2
403.791	704.2
404.197	686.6
404.602	688.4
405.007	690
405.413	681
405.818	686.4
406.224	681.8
406.608	680.4
407.014	672
407.42	704.8
407.825	681.8
408.231	695.8
408.637	684.4
409.043	701.8
409.449	677.6
409.834	676.6
410.24	687.2
410.646	696.6
411.052	685.8
411.458	682.2
411.865	697.2
412.271	690.8
412.677	683
413.062	689.8
413.469	671.8
413.875	715.8
414.282	707.6
414.689	683.4
415.095	681.2
415.502	672
415.888	677.4
416.294	669.4
416.701	732
417.108	671.6
417.515	697.4
417.923	676
418.33	704.4
418.715	695.8
419.123	680.2
419.53	676
419.937	675
420.345	703.6
420.752	679.2
421.16	700.4
421.546	679.8
421.953	689
422.361	682.2
422.769	687.4
423.177	680
423.585	708.4
423.992	707
424.379	698
424.787	699
425.195	716.2
425.603	683.6
426.011	704.6
426.419	699.4
426.806	690.8
427.214	691
427.623	704.6
428.031	704
428.44	686.4
428.848	697.4
429.235	699.6
429.644	694
430.053	682.2
430.461	711
430.87	720.8
431.279	707
431.666	685.2
432.075	699
432.484	700.2
432.893	684.8
433.302	716.2
433.711	741.6
434.099	695.2
434.508	686.4
434.918	675.6
435.327	695.4
435.737	690.4
436.125	685.2
436.534	689
436.944	697.6
437.353	696.8
437.763	710.4
438.173	678.2
438.561	693.8
438.971	674
439.381	686
439.791	692.4
440.201	663.6
440.589	688.4
440.999	690.8
441.409	689.8
441.819	667.6
442.23	696.6
442.619	699
443.029	684.6
443.439	685.6
443.85	689.2
444.26	696
444.649	687.4
445.06	689.6
445.471	674.8
445.881	684.6
446.292	696.6
446.682	709.8
447.092	664.6
447.503	745.4
447.914	685.4
448.325	683.2
448.715	683.8
449.126	669.8
449.537	685.8
449.948	677.4
450.338	683.6
450.75	690.8
451.161	686.4
451.572	682.2
451.984	679.2
452.374	662.2
452.786	670.6
453.197	692.4
453.609	693.4
453.999	669.4
454.411	671.2
454.823	693.8
455.235	675.2
455.647	676.4
456.037	686
456.449	669
456.862	675.2
457.274	676.8
457.665	659
458.077	685.4
458.489	717
458.902	672.6
459.293	678.8
459.705	678.2
460.118	673
460.53	678.8
460.921	681.4
461.334	685
461.747	676.6
462.16	694.6
462.551	692.2
462.964	682
463.377	668.4
463.79	676.4
464.182	689.8
464.595	663.6
465.008	678.4
465.421	686.8
465.813	679.8
466.226	683.8
466.64	680.8
467.053	728.6
467.445	697.4
467.859	702.2
468.272	682.2
468.686	692.6
469.078	670.6
469.492	664
469.906	678
470.298	682
470.712	667.8
471.126	743.2
471.54	661
471.933	663.4
472.347	674.2
472.761	666.2
473.175	668
473.568	665
473.982	657.2
474.397	675.8
474.79	683
475.204	676.8
475.619	673.6
476.033	677.6
476.426	660.6
476.841	663.6
477.256	697.4
477.649	660
478.064	673.2
478.479	663.2
478.872	667.4
479.287	661.4
479.702	662.2
480.118	680.6
480.511	677.2
480.927	671.4
481.342	677.8
481.736	678.8
482.151	675.4
482.566	690.4
482.96	676.6
483.376	686.4
483.792	663.6
484.186	679.8
484.602	669.8
485.017	670.2
485.412	676.8
485.827	681.4
486.243	680
486.638	700.8
487.054	675.2
487.47	693
487.865	679
488.281	670
488.697	674.8
489.092	673.2
489.508	663.8
489.925	695
490.32	669.4
490.736	675.4
491.153	683.2
491.548	685.8
491.964	695.2
492.381	664.2
492.776	687
493.193	675
493.61	688.8
494.006	678.6
494.422	681.2
494.84	673.2
495.235	687.2
495.652	683.4
496.069	677.6
496.465	670.8
496.883	676.6
497.3	704.6
497.696	672.6
498.113	685.4
498.509	671.8
498.927	678.6
499.344	679.2
499.741	672.2
500.158	703.8
500.576	695.6
500.973	684.8
501.39	664
501.787	680.8
502.205	688.2
502.623	689.8
503.02	669.2
503.438	682.2
503.856	679.8
504.253	695
504.671	686.2
505.068	685
505.486	686.2
505.905	708.6
506.302	685.8
506.72	701.8
507.118	678.4
507.536	685
507.955	690.6
508.352	690.8
508.771	697.6
509.169	705.4
509.587	682.2
510.006	693.4
510.404	689.8
510.823	685.8
511.221	686
511.64	683.8
512.038	713.4
512.457	695.4
512.877	684.6
513.275	690.6
513.694	698
514.092	689
514.512	708.8
514.91	696.8
515.33	689.6
515.749	692.2
516.148	706
516.568	702.6
516.966	702.4
517.386	690
517.785	693.4
518.205	689.8
518.603	691
519.024	690.6
519.444	695.6
519.843	705.2
520.263	717
520.662	698.6
521.082	699.6
521.481	703.2
521.902	693.8
522.301	700.2
522.722	707
523.121	694
523.542	688.6
523.963	698.6
524.362	698.6
524.783	704.2
525.183	689.2
525.604	706.6
526.003	686
526.425	683.4
526.824	699.6
527.246	701
527.646	707.8
528.067	695.6
528.467	694
528.888	694.4
529.289	690.2
529.71	701.2
530.11	691.6
530.532	691.4
530.932	690.4
531.354	677
531.755	729.2
532.176	700.4
532.577	689.6
532.999	694.2
533.4	692.2
533.822	699.6
534.223	696
534.645	686.2
535.046	688.8
535.468	690.8
535.869	715.4
536.292	683.4
536.693	737.4
537.115	692.6
537.516	682.2
537.939	690.4
538.34	706.6
538.742	705.8
539.165	689.4
539.566	684.4
539.989	676
540.391	679.8
540.814	677.6
541.216	689.6
541.639	679.8
542.041	693.2
542.464	691.4
542.866	676
543.268	668.4
543.691	688.6
544.093	691
544.517	706.6
544.919	679.8
545.343	705
545.745	673
546.147	680.8
546.571	672.6
546.974	672
547.398	690
547.8	693.4
548.224	675.4
548.627	672.6
549.03	685.4
549.454	665.8
549.857	663.6
550.281	674
550.684	675.6
551.087	690
551.512	677.6
551.915	685
552.34	680.6
552.743	666.2
553.146	676.4
553.571	681.6
553.975	693.2
554.399	667.2
554.803	733.6
555.207	663.2
555.632	657.6
556.036	675.6
556.461	673.4
556.865	679.2
557.268	671.4
557.694	676
558.098	682.4
558.502	679.6
558.927	667
559.332	667.6
559.736	673.6
560.162	681.6
560.566	667.6
560.992	677.2
561.396	669.8
561.801	663.4
562.227	671.6
562.631	663.6
563.036	674.6
563.462	683.8
563.867	679.2
564.272	649
564.698	672.8
565.103	659.8
565.508	688.8
565.935	671.6
566.34	664
566.745	687.2
567.172	665.8
567.577	685.6
567.982	690
568.409	679
568.815	662.2
569.22	673.8
569.626	683.4
570.053	659.6
570.459	664.2
570.865	680.4
571.292	672.2
571.698	675.8
572.104	656.8
572.531	678
572.937	684.8
573.343	671.2
573.75	666.2
574.177	667.4
574.583	673.6
574.99	663.8
575.396	676
575.824	660.2
576.231	684.8
576.637	663
577.065	698.6
577.472	661.4
577.879	659.6
578.286	679.2
578.714	652.8
579.121	665
579.528	666.2
579.935	680.8
580.364	665.2
580.771	650.4
581.178	655.6
581.585	665.8
582.014	679
582.421	658.6
582.829	661.8
583.236	670.8
583.644	662
584.073	665.2
584.481	656.4
584.889	660.4
585.296	675.8
585.726	671.2
586.134	652.2
586.542	661.8
586.95	683.8
587.358	658.2
587.787	669
588.196	657.6
588.604	665
589.012	666.6
589.421	655.4
589.851	651.8
590.259	663.6
590.668	660.2
591.076	705.4
591.485	661.6
591.894	660
592.324	675
592.733	677.8
593.142	648.6
593.551	656.4
593.96	705.2
594.369	653.8
594.8	639.2
595.209	659.8
595.618	647.2
596.028	664.8
596.437	652.8
596.847	658.4
597.256	659.6
597.687	674.2
598.097	661.8
598.507	657.6
598.917	655.2
599.327	673.4
599.736	666.4
600.146	676
600.556	672.4
600.988	673
601.398	652.4
601.808	680
602.219	646.4
602.629	655
603.039	663.6
603.45	694.4
603.86	667.4
604.271	675.6
604.703	675.4
605.114	658.8
605.525	665.4
605.935	674
606.346	698.6
606.757	674
607.168	667.2
607.579	660.2
607.99	684.8
608.402	661.2
608.813	673
609.224	662.2
609.636	651
610.047	662.6
610.48	673.4
610.892	672.4
611.303	675
611.715	665
612.127	660.2
612.539	663.6
612.95	667.4
613.362	649.2
613.774	647.6
614.186	654.6
614.599	660.6
615.011	674.8
615.423	662.2
615.835	661.8
616.248	653.2
616.66	673.4
617.073	646.4
617.485	659.4
617.898	676.6
618.311	670.2
618.723	659
619.136	690.8
619.549	686.8
619.962	693.8
620.375	664.8
620.788	666.6
621.201	657.8
621.614	671.4
622.028	658
622.441	674.8
622.854	682.4
623.268	652.8
623.681	668
624.095	657.8
624.509	668.6
624.922	661.2
625.336	648.6
625.728	662.2
626.142	675.4
626.556	685.2
626.97	674.4
627.384	663
627.799	670.4
628.213	669
628.627	663.2
629.041	664.8
629.456	660.6
629.87	664.4
630.285	671.4
630.699	674.8
631.093	662.4
631.507	671.4
631.922	666.2
632.337	684.8
632.752	651.8
633.167	662.8
633.582	658.2
633.997	659.4
634.412	665
634.806	662.8
635.221	658
635.637	678.8
636.052	653
636.468	663.6
636.883	688.8
637.299	666.4
637.715	648.8
638.109	658.8
638.525	646.8
638.941	681.4
639.357	676.4
639.773	669.8
640.189	657
640.584	661.2
641	671.8
641.416	657.8
641.832	659.8
642.249	660.4
642.665	658.2
643.06	664.4
643.477	679.2
643.894	649
644.31	662
644.727	665
645.123	662.6
645.54	651.4
645.957	662
646.374	688.6
646.77	664.2
647.187	694.6
647.604	663.2
648.021	652.2
648.439	660
648.835	671.8
649.252	665.6
649.67	658.6
650.088	665.2
650.484	658.8
650.902	671.6
651.32	669.2
651.738	658.2
652.134	661
652.552	691.4
652.971	674.2
653.389	663.4
653.786	676.6
654.204	688
654.622	660
655.019	666
655.438	669.2
655.857	664.6
656.275	663.4
656.673	660.2
657.091	751.8
657.51	661.2
657.908	675.2
658.327	680.6
658.746	655
659.144	656.4
659.563	673.6
659.982	674
660.38	655.8
660.8	667.4
661.219	672.4
661.617	664
662.037	672.6
662.457	675.8
662.855	651
663.275	699.2
663.695	664.8
664.094	660.6
664.514	666.4
664.934	656
665.333	666.4
665.753	645.6
666.152	659
666.572	655.6
666.993	687.2
667.392	657.6
667.812	651.6
668.212	661
668.632	673.2
669.053	651.2
669.453	665
669.874	671.6
670.273	676.8
670.694	656.6
671.116	670.4
671.515	677.2
671.937	662.4
672.337	652.8
672.758	664.2
673.158	673.8
673.58	648.2
673.98	662.4
674.402	675.2
674.824	658.2
675.224	654.8
675.646	654.2
676.047	650.8
676.469	664.2
676.869	669.6
677.292	666.8
677.693	648
678.115	655.6
678.516	665.4
678.939	670.6
679.34	652.2
679.762	674
680.164	662.6
680.586	652.2
680.988	666.8
681.411	693.4
681.812	656
682.236	660.2
682.637	648.4
683.061	643.4
683.462	659.6
683.864	658
684.288	661
684.69	645.6
685.114	674.6
685.516	663.4
685.94	652.6
686.342	660.2
686.766	651.6
687.168	654
687.571	680.6
687.995	662.6
688.398	649.8
688.822	645.8
689.225	681.2
689.628	680
690.052	664.4
690.456	664.8
690.88	655.8
691.284	647
691.687	663.2
692.112	651.2
692.515	655.8
692.919	658.4
693.344	665.2
693.747	652.6
694.173	654
694.577	668.8
694.98	652.6
695.406	653.2
695.81	659.6
696.214	662.6
696.64	655.4
697.044	654.6
697.448	681.6
697.874	666
698.279	649.8
698.684	649.2
699.11	650.4
699.514	655.8
699.919	657.4
700.324	641.6
700.75	664.8
701.156	659.2
701.561	672
701.987	661.6
702.393	668.4
702.798	677.8
703.203	660.4
703.63	652
704.036	655
704.442	665.8
704.847	654.4
705.274	653.6
705.68	670.8
706.086	672
706.492	658.8
706.92	657.8
707.326	674.2
707.732	652.8
708.139	658
708.545	660.4
708.973	649.4
709.38	668.4
709.786	650.8
710.193	681.8
710.6	666.4
711.028	657.8
711.435	653.2
711.842	657.2
712.249	661.2
712.656	659
713.064	669.2
713.492	653.4
713.9	659.6
714.307	660.2
714.715	661
715.123	662
715.53	662.4
715.938	675.8
716.367	658.8
716.775	663.2
717.184	656
717.592	657.8
718	666.2
718.408	699.8
718.816	710.8
719.225	660.6
719.633	664.2
720.042	656
720.472	658.4
720.881	677.6
721.29	663
721.699	651.6
722.108	662.6
722.517	660
722.926	655
723.335	670.8
723.744	657.2
724.154	659.8
724.563	666.4
724.973	651.8
725.382	656.2
725.792	651
726.202	647
726.612	682.4
727.022	655.6
727.432	648.2
779.813	659.4
780.223	711
780.634	662.4
781.044	647.2
781.454	661.6
781.865	664.4
782.276	642.8
782.686	674.6
783.097	659.4
783.508	654.6
783.919	660.6
784.33	674.6
784.741	669.2
785.152	650.2
785.563	646.4
785.974	656.8
786.386	668.2
786.776	654.6
787.188	652.2
787.599	655.4
788.011	666.6
788.423	659.4
788.835	661
789.247	650.6
789.659	652.2
790.071	652
790.483	704.6
790.874	650.4
791.286	665.2
791.699	660
792.111	657.6
792.524	669.2
792.937	655
793.349	656
793.741	649.2
794.154	650.6
794.567	677
794.98	657.4
795.393	654
795.785	674.4
796.198	656
796.612	668.8
797.026	645.6
797.439	639.8
797.831	663.4
798.245	644.2
798.659	653.2
799.073	651.6
799.487	642.6
799.88	657.8
800.294	659.6
800.708	663.8
801.123	667.4
801.516	674.2
801.93	637.6
802.345	646.4
802.76	661.2
803.153	672.4
803.568	679.8
803.983	669.6
804.377	669
804.792	646.4
805.207	642.4
805.601	661.8
806.016	689.8
806.432	652.4
806.826	691.6
807.242	677.8
807.658	660.8
808.052	655.4
808.468	661.4
808.884	660.8
809.279	658.6
809.695	675.4
810.111	675.6
810.506	663.4
810.922	672.4
811.339	653.2
811.734	669.4
812.151	650.6
812.546	653
812.963	655
813.38	661
813.776	659.6
814.193	677.6
814.589	644.2
815.006	650.6
815.402	649.4
815.82	654.6
816.237	653.2
816.633	663.8
817.051	646
817.448	657.6
817.866	645
818.262	675.8
818.68	642.8
819.077	648.4
819.495	659.8
819.892	700.4
820.311	661.8
820.708	650.4
821.127	648.8
821.524	667.2
821.943	658.8
822.34	684.6
822.759	655.6
823.157	653.2
823.576	674.6
823.974	666.6
824.393	736.8
824.791	646.2
825.189	648.6
825.609	656.6
826.007	658.8
826.427	648.6
826.826	661.4
827.246	663
827.644	634.4
828.043	668.4
828.463	655.2
828.862	665.4
829.261	664.8
829.682	647.4
830.081	668.8
830.502	645.2
830.901	661.6
831.301	641.2
831.722	647.4
832.121	664.2
832.521	649.2
832.943	649.8
833.342	658.8
833.742	654.8
834.164	652
834.564	650.4
834.965	653.8
835.386	647.8
835.787	652.6
836.188	648.2
836.588	660.2
837.01	656.6
837.411	648.2
837.812	656.4
838.213	645.4
838.636	644.2
839.037	730.2
839.438	662
839.84	649.2
840.263	658
840.664	663.6
841.066	651
841.468	663.8
841.891	650.6
842.293	663.6
842.695	662.8
843.098	667.6
843.5	659
843.902	658
844.326	657.2
844.729	651
845.131	670
845.534	652.2
845.937	669.6
846.34	677.6
846.764	659.6
847.167	658.4
847.571	650.4
847.974	647
848.377	652.4
848.781	700.6
849.184	672.4
849.588	648.4
849.992	647.4
850.396	661.4
850.821	675
851.225	663
851.63	655.8
852.034	670.6
852.438	652
852.843	706.6
853.247	645
853.652	644.6
854.057	675.6
854.462	653.8
854.867	660.4
855.272	682
855.677	655
856.082	658.4
856.487	639
856.893	651.2
857.298	650.2
857.704	653
858.11	662.2
858.516	659.6
858.922	657.2
859.328	662.6
859.734	653.4
860.14	663.2
860.525	658.6
860.931	649.4
861.338	652.8
861.745	655.6
862.151	668
862.558	658.6
862.965	646.4
863.372	644.4
863.779	653.6
864.186	677.6
864.572	659.4
864.98	674.4
865.387	693.6
865.795	650.2
866.203	664.6
866.61	644.2
867.018	666.4
867.405	665.4
867.813	655.2
868.221	656.2
868.63	649.6
869.038	670.4
869.425	709
869.834	661.2
870.243	650.2
870.652	650.4
871.039	651.2
871.448	652.6
871.857	657.6
872.266	662.4
872.654	664.2
873.064	648.8
873.473	676.8
873.883	650.2
874.271	650
874.681	669.6
875.091	641.8
875.48	665.4
875.89	678.6
876.3	648.2
876.689	634.8
877.1	654.2
877.51	659
877.9	679.4
878.31	647.8
878.721	689.8
879.111	655.6
879.522	644.4
879.933	643
880.323	635.2
880.734	646
881.125	648.4
881.536	650.4
881.948	644.2
882.338	651.2
882.75	663.8
883.141	647.8
883.553	663.2
883.944	679
884.356	664
884.769	651.8
885.16	658.8
885.573	653.2
885.964	652.2
886.377	652.2
886.768	637.6
887.181	648.8
887.573	640.8
887.987	669.4
888.378	673.6
888.792	657.8
889.184	707.4
889.598	650.4
889.99	650.4
890.383	647.6
890.797	640.8
891.19	663.6
891.604	649.4
891.997	648.6
892.411	649.8
892.805	636.8
893.198	654.4
893.613	632.6
894.006	654.8
894.421	648.6
894.815	645.6
895.209	647.2
895.624	708.8
896.018	663.8
896.412	650.6
896.828	650.4
897.222	658.6
897.617	651.4
898.033	676
898.427	654.8
898.822	658.4
899.239	648.6
899.634	642.6
900.029	674.4
900.424	654.4
900.841	641.4
901.236	663.8
901.632	654.8
902.027	724.2
902.445	662
902.841	652.8
903.237	653.6
903.633	675
904.05	657.6
904.447	669.6
904.843	663.4
905.24	651.8
905.636	645.4
906.033	650.8
906.451	671.2
906.848	648.6
907.246	653.4
907.643	659.8
908.04	658.4
908.438	668
908.835	665
909.254	648.4
909.652	660.6
910.05	649.4
910.448	648.4
910.846	655.2
911.244	654.2
911.643	657.4
912.041	654.2
912.44	669.4
912.839	642.2
913.237	651.8
913.636	642
914.035	662.2
914.434	649.6
914.834	665
915.233	661
915.633	645.6
916.032	653.2
916.432	645.2
916.832	667.4
917.232	653.2
917.632	641.6
918.032	647.8
918.432	654.8
918.833	655.2
919.233	645.2
919.634	640.4
920.035	644
920.436	644.8
920.837	653.4
921.238	642
921.639	646.2
922.019	652
922.42	653.6
922.822	662.4
923.224	651.2
923.625	650
924.027	644.2
924.429	679.6
924.81	653.6
925.212	659.8
925.615	645
926.017	652.8
926.42	667
926.801	655.4
927.204	657
927.607	667.2
928.01	674
928.413	654.6
928.795	635
929.199	649.2
929.602	645.2
930.006	643.2
930.388	643.6
930.792	662.6
931.196	651.4
931.579	690.4
931.983	645.6
932.388	706.2
932.771	650.8
933.176	640.8
933.58	647.8
933.964	659.4
934.369	633.4
934.774	661.4
935.158	643.4
935.563	666.4
935.947	657.2
936.353	659.8
936.759	648.4
937.143	658
937.549	651.6
937.934	662.4
938.34	664.8
938.746	639.8
939.131	651
939.538	642.4
939.923	652.8
940.33	645.4
940.716	658.2
941.123	657.6
941.508	657.2
941.916	675.8
942.302	656.2
942.709	644
943.096	641.4
943.503	661.6
943.89	649.6
944.298	648.2
944.685	680.8
945.072	654.6
945.48	665
945.867	646.6
946.276	648.8
946.663	675
947.051	667.6
947.46	659.4
947.848	663.6
948.257	646
948.645	644.6
949.033	652.2
949.443	648.2
949.831	693.6
950.22	641.2
950.63	657.4
951.018	675.2
951.407	644.6
951.796	639.2
952.207	653.2
952.596	652.4
952.985	638.8
953.375	705.2
953.786	645.6
954.176	643.8
954.566	665.2
954.956	636.4
955.367	652.2
955.758	676
956.148	638.2
956.539	669.2
956.929	635.8
957.341	637.4
957.732	643.6
958.123	650.6
958.515	648.6
958.906	661.8
959.297	651
959.689	648.4
960.102	650.6
960.494	661
960.886	646.4
961.278	644.4
961.67	679.6
962.062	691.6
962.455	648
962.847	643
963.24	648
963.633	651.8
964.026	631.4
964.419	652.6
964.812	662.6
965.206	645.8
965.599	661.4
965.993	646.8
966.386	660.4
966.78	664.2
967.174	661.8
967.569	645
967.963	639.8
968.357	644.2
968.752	643
969.146	650.6
969.541	643.4
969.936	649.6
970.331	653
970.705	654.4
971.1	648.4
971.496	657.2
971.892	646.8
972.287	655.2
972.683	650.2
973.079	646.2
973.454	666.4
973.85	660.8
974.247	657
974.643	682.6
975.04	655.6
975.415	655.2
975.812	641
976.209	655.2
976.607	629.4
976.982	665.8
977.38	678.8
977.778	646.8
978.175	651
978.552	652.2
978.95	653.6
979.348	655.8
979.725	693.6
980.123	644
980.522	641.8
980.899	647.2
981.298	650.8
981.697	648.6
982.075	651.2
982.474	646
982.852	650.2
983.251	646.6
983.651	641.2
984.029	658
984.429	644.6
984.808	635.6
985.208	641
985.609	640.4
985.987	641
986.388	644
986.768	653
987.168	647.6
987.548	656.6
987.949	656.2
988.329	656.8
988.731	633
989.111	652.2
989.491	651.2
989.893	645.2
990.273	662.6
990.676	642.4
991.057	641.4
991.459	644.2
991.84	643.6
992.221	637.8
992.624	673.6
993.006	659.8
993.388	657.6
993.791	656.8
994.173	655.4
994.576	685.4
994.959	643.8
995.341	637.8
995.724	647.8
996.128	638.6
996.511	653
996.894	642.4
997.298	651.4
997.681	651.4
998.065	655.8
998.448	648.8
998.854	655.8
999.237	639
999.621	671
1000.01	665.8
1000.39	649.4
1000.8	638.6
1001.18	650.6
1001.56	658.6
1001.95	664.8
1002.33	654.2
1002.72	651.8
1003.13	642.2
1003.51	653.4
1003.9	648.6
1004.28	663.6
1004.67	646.6
1005.06	653.2
1005.44	682.4
1005.83	638.2
1006.21	652.6
1006.6	652
1006.99	667.6
1007.37	651.6
1007.76	651.6
1060.12	640.4
1060.51	639.6
1060.89	656.4
1061.28	656.4
1061.67	668.4
1062.06	654.2
1062.45	658.8
1062.83	643.4
1063.22	660.8
1063.61	680.2
1064	662.8
1064.39	647.4
1064.78	640.8
1065.14	667
1065.53	650
1065.92	654.2
1066.31	643.6
1066.7	660
1067.09	667.8
1067.46	656.8
1067.85	645.6
1068.24	637
1068.63	655.8
1069.02	637.4
1069.39	658.6
1069.78	641.6
1070.17	646.6
1070.57	641.6
1070.93	640
1071.33	643.4
1071.72	662.4
1072.11	641.2
1072.48	640.4
1072.87	647.2
1073.26	652.2
1073.64	651
1074.03	638.8
1074.4	642.6
1074.79	642.6
1075.19	647.8
1075.56	657.4
1075.95	651.6
1076.34	643.2
1076.72	649.4
1077.11	656.6
1077.48	663.4
1077.88	652.8
1078.25	650.2
1078.64	662.6
1079.02	649.8
1079.41	661.8
1079.78	640.6
1080.18	645.8
1080.55	732.8
1080.95	647.2
1081.32	638.2
1081.72	653.8
1082.09	647.4
1082.49	637.2
1082.86	638.8
1083.24	637.6
1083.63	638.4
1084.01	641
1084.38	654
1084.78	643
1085.16	654.6
1085.55	656.2
1085.93	661.8
1086.31	641.6
1086.7	678.4
1087.08	653.6
1087.46	645.6
1087.83	632.4
1088.23	658.8
1088.61	643.6
1088.99	652
1089.36	640
1089.76	646.4
1090.14	635.6
1090.52	647
1090.9	643
1091.27	649.6
1091.67	665.6
1092.05	657.6
1092.43	645.8
1092.81	655.4
1093.19	655
1093.57	649.8
1093.95	640.6
1094.35	651.4
1094.73	651.4
1095.11	640
1095.49	636.6
1095.87	641
1096.25	654
1096.63	654
1097.01	645.2
1097.39	658
1097.77	652.2
1098.15	641
1098.53	639.8
1098.91	642.4
1099.29	632.2
1099.68	670
1100.06	654.8
1100.44	648.2
1100.82	656
1101.18	652
1101.56	644.4
1101.95	647.8
1102.33	630.6
1102.71	647.2
1103.1	637
1103.48	632.6
1103.86	638.2
1104.22	655.6
1104.61	654.4
1104.99	644.2
1105.38	633.8
1105.76	649.2
1106.12	647.2
1106.51	683.6
1106.89	657.4
1107.26	656.4
1107.64	659
1108.03	644.8
1108.41	644.6
1108.78	644.6
1109.16	650
1109.55	656.8
1109.91	640.2
1110.3	625.4
1110.69	658.2
1111.05	643
1111.44	654.8
1111.8	651.8
1112.19	645.2
1112.58	651.2
1112.94	649
1113.33	644
1113.7	639.4
1114.09	643.8
1114.45	630.4
1114.84	653.2
1115.21	652.6
1115.6	638.2
1115.96	657.8
1116.35	657.8
1116.72	642.6
1117.11	653.2
1117.48	642
1117.85	649.6
1118.24	669.8
1118.6	653
1118.99	638.8
1119.36	650.6
1119.73	646.2
1120.12	654.4
1120.49	629.2
1120.86	650.6
1121.25	644.4
1121.62	631.6
1121.99	648
1122.38	666.6
1122.76	651.8
1123.13	642.2
1123.5	654.8
1123.89	653
1124.26	636
1124.63	650.6
1125	638
1125.4	633
1125.77	642.2
1126.14	627.8
1126.51	648.2
1126.88	645
1127.26	646
1127.63	618.8
1128.02	632.8
1128.4	634
1128.77	640.4
1129.14	646
1129.52	649.2
1129.89	655.8
1130.26	635.4
1130.64	630.4
1131.01	641.4
