#lambda/nm	C1
208.295	540.2
208.67	491.6
209.045	453.4
209.419	452.2
209.794	687.6
210.169	667.2
210.544	813.6
210.919	694.6
211.295	680.8
211.67	687.8
212.045	680.4
212.421	678
212.796	740.2
213.172	684
213.547	679.8
213.923	675.8
214.299	679
214.675	696.6
215.051	700.6
215.427	698.8
215.803	716.4
216.179	698.8
216.555	679.2
216.932	694.6
217.308	690
217.684	689.4
218.061	698.8
218.438	686.8
218.814	678.2
219.191	695.6
219.568	679.8
219.945	680.2
220.322	689
220.699	690.4
221.076	691.4
221.453	691.2
221.83	680
222.208	683.4
222.585	681.8
222.962	686.2
223.34	687.2
223.717	689.2
224.095	695.2
224.473	686.4
224.851	684.2
225.229	672.2
225.607	702.2
225.985	672.6
226.363	694
226.741	689.4
227.119	686.4
227.497	693
227.876	668.2
228.254	694.6
228.633	697.4
229.011	690.4
229.39	684.4
229.769	692.4
230.148	698
230.527	706.6
230.905	688.8
231.284	688.8
231.664	681
232.043	694.6
232.422	699
232.801	683.8
233.181	683.4
233.56	684.6
233.94	690.8
234.319	671.6
234.699	676
235.079	730
235.458	724.4
235.838	706.8
236.218	679.2
236.598	663.8
236.978	675.8
237.358	676.6
237.738	678
238.119	692.8
238.499	675.4
238.88	686
239.26	706.4
239.641	681.8
240.021	678.2
240.402	687.8
240.783	675.6
241.163	673.6
241.544	686
241.925	691.8
242.306	690
242.687	669.4
243.069	689
243.45	696
243.831	675.6
244.212	684.6
244.594	722.8
244.975	695.6
245.357	695.4
245.739	673.4
246.12	682.6
246.502	705.6
246.884	682.8
247.266	681.4
247.648	691.2
248.03	714.6
248.412	691
248.794	695.8
249.176	683.2
249.559	702.4
249.941	674.8
250.323	677
250.706	674.8
251.089	688.2
251.471	685.8
251.854	684.4
252.237	691.2
252.62	701.4
253.002	687.8
253.385	682.6
253.769	702.4
254.152	691.4
254.535	687.2
254.918	682.2
255.301	685.8
255.685	686.2
256.068	676
256.452	718.6
256.835	693.8
257.219	694
257.603	705.6
257.986	679.4
258.37	692.4
258.754	676.8
259.138	700.4
259.522	696
259.906	693.6
260.29	701.4
260.675	688.6
261.059	684.4
261.443	680.4
261.828	694
262.212	693.4
262.597	680.8
262.981	675.6
263.366	693
263.751	684.8
264.136	670.8
264.521	684.4
264.906	679.2
265.291	694.6
265.676	683.2
266.061	696.8
266.446	718.4
266.831	688
267.217	714.2
267.602	688.4
267.987	693
268.373	689.6
268.759	699.2
269.144	696
269.53	682
269.916	695.8
270.302	689.2
270.688	690.2
271.074	692.2
271.46	699
271.846	726.2
272.232	698.2
272.618	683.4
273.004	689
273.391	702.4
273.777	711.4
274.164	695.2
274.55	707.4
274.937	694.6
275.324	689.2
275.71	700
276.097	692.4
276.484	685.8
276.871	694.6
277.258	695
277.645	670.4
278.032	687
278.419	681.8
278.807	693.2
279.194	683.2
279.581	679.2
279.969	690
280.356	690.4
280.744	690.8
281.131	721.2
281.519	696.2
281.907	690
282.295	681.6
282.682	704.8
283.07	700.4
283.458	690.4
283.846	697.4
284.235	698.8
284.623	699
285.011	684.6
285.399	695
285.788	696.2
286.176	679.4
286.565	704.8
286.953	677
287.342	685.2
287.731	682.2
288.119	684.6
288.508	685.6
288.897	681
289.286	680.6
289.675	693
290.064	704.6
290.453	681.2
290.821	691.8
291.21	709.4
291.599	687.8
291.989	699.8
292.378	696.8
292.768	714.4
293.157	691.8
293.547	691.8
293.936	675.6
294.326	680.2
294.716	689.4
295.106	678.4
295.496	694
295.886	694.4
296.276	685.2
296.666	689.6
297.056	687.8
297.446	686.8
297.836	713.4
298.227	687.4
298.617	688.8
299.008	701.2
299.398	689
299.789	680.2
300.179	687.2
300.57	693.4
300.961	689.4
301.352	674.8
301.742	698.4
302.133	682
302.524	683.2
302.915	691.6
303.307	679.4
303.698	703.8
304.089	690.6
304.48	692
304.872	698.2
305.263	689.8
305.655	683.2
306.046	700.4
306.438	684.2
306.829	678.6
307.221	711.4
307.613	699.8
308.005	706.2
308.397	710.8
308.789	718.6
309.181	722.4
309.573	710.4
309.965	713.4
310.357	688
310.749	702
311.142	673.4
311.534	688.2
311.926	698.6
312.319	696.6
312.711	681.2
313.104	707.6
313.497	688.6
313.889	735.6
314.282	713.2
314.675	717
315.068	690.6
315.461	698
315.854	725.8
316.247	698.2
316.64	692.6
317.033	683.2
317.405	707.4
317.798	692
318.192	690
318.585	683.2
318.979	698.2
319.372	679.4
319.766	679.2
320.16	696
320.553	703.4
320.947	713.8
321.341	681.4
321.735	685.2
322.129	674.4
322.523	717.8
322.917	686.6
323.311	706
323.705	698.4
324.099	702.8
324.494	715
324.888	705.8
325.282	688.2
325.677	710
326.071	696.8
326.466	696
326.861	691.2
327.255	701.2
327.65	704.8
328.045	711.2
328.44	690.4
328.835	690.8
329.23	677
329.625	710
330.02	690.6
330.415	710.4
330.81	691
331.206	704.8
331.601	686.2
331.996	705.6
332.37	711.2
332.766	681.6
333.161	717.8
333.557	688.4
333.953	685.4
334.348	1020
334.744	693
335.14	689.4
335.536	685.4
335.932	705.6
336.328	695.2
336.724	711.8
337.12	703.8
337.516	685.2
337.913	694.4
338.309	706.4
338.705	693.2
339.102	707.8
339.498	686.2
339.895	704
340.291	688.6
340.688	697.6
341.085	680.6
341.481	689.6
341.878	684.8
342.275	706.4
342.672	670.6
343.069	683.8
343.466	669.6
343.842	703.2
344.239	680.8
344.636	683.6
345.033	673.6
345.431	683
345.828	688.2
346.225	682.2
346.623	722
347.02	680.6
347.418	702.2
347.816	705.6
348.213	672.6
348.611	694.8
349.009	678
349.407	695
349.805	671.4
350.203	676.6
350.601	698.6
350.999	684
351.397	752
351.795	688.4
352.193	705.6
352.57	698.2
352.969	710.6
353.367	670.2
353.766	679.8
354.164	684.2
354.563	703.2
354.961	688.4
355.36	677
355.759	681.4
356.158	674.6
356.557	686.2
356.956	679.2
357.355	675.4
357.754	689.6
358.153	688.4
358.552	717.8
358.951	675
359.35	699.4
359.75	684.6
360.149	674
360.527	667.4
360.926	671.4
361.326	691.2
361.726	683.4
362.125	672.4
362.525	696.4
362.925	683.6
363.325	686.4
363.724	686.8
364.124	683.2
364.524	672.6
364.924	679.2
365.324	687.6
365.725	662.8
366.125	692
366.525	686.6
366.904	686
367.304	664.4
367.705	710.6
368.105	690.4
368.506	683.4
368.906	678
369.307	681.6
369.708	690.6
370.108	662.2
370.509	695.6
370.91	674.2
371.311	683.4
371.712	687.6
372.113	674
372.514	668
372.894	689.6
373.295	683.8
373.696	692.2
374.097	691.2
374.499	714.6
374.9	693.4
375.301	679.2
375.703	691
376.105	668.2
376.506	686
376.908	685.2
377.309	681
377.711	686.6
378.113	681.6
378.493	684
378.895	675.8
379.297	695.2
379.699	668.6
380.102	685.6
380.504	692.6
380.906	665.6
381.308	713.2
381.71	668.8
382.113	694.2
382.515	674.8
382.918	680.8
383.299	679
383.701	686.8
384.104	688
384.507	659.6
384.909	675.6
385.312	661.4
385.715	662
386.118	681
386.521	661.8
386.924	688.8
387.327	668.6
387.709	660.6
388.112	663.8
388.515	672.8
388.918	676.8
389.322	686.4
389.725	678.8
390.129	702.6
390.532	687
390.936	679
391.339	673.2
391.743	685.4
392.125	660.6
392.529	690.2
392.933	704
393.337	680.6
393.74	678.4
394.144	681.6
394.548	675.2
394.953	679.8
395.357	689.6
395.761	675.8
396.144	681
396.548	684.2
396.952	681.4
397.357	682
397.761	677.2
398.166	683.4
398.57	674.2
398.975	670.4
399.379	685.2
399.763	733.6
400.168	687.6
400.572	682
400.977	683.4
401.382	702.2
401.787	695
402.192	695
402.597	703.4
403.002	665.8
403.386	692
403.791	702.2
404.197	673.4
404.602	675.8
405.007	680.2
405.413	677.2
405.818	677.2
406.224	677.2
406.608	676.4
407.014	675.2
407.42	700.8
407.825	673.2
408.231	690.6
408.637	686.4
409.043	693
409.449	677.2
409.834	674.8
410.24	686
410.646	697.4
411.052	689.4
411.458	687
411.865	688
412.271	694.6
412.677	690.8
413.062	694.2
413.469	670.8
413.875	708
414.282	698.6
414.689	695.2
415.095	684.8
415.502	676.2
415.888	689.6
416.294	673.6
416.701	728.2
417.108	680
417.515	687.2
417.923	676.8
418.33	703.8
418.715	692.6
419.123	677.8
419.53	685.6
419.937	687.8
420.345	697.4
420.752	677.4
421.16	700.8
421.546	680.2
421.953	697.2
422.361	670.4
422.769	690.6
423.177	675
423.585	708.4
423.992	704.4
424.379	695.6
424.787	694
425.195	704.8
425.603	683
426.011	704.6
426.419	706.4
426.806	684
427.214	689.8
427.623	711.2
428.031	706.8
428.44	693.4
428.848	696
429.235	703.2
429.644	688.8
430.053	678.2
430.461	697.2
430.87	708.2
431.279	702.4
431.666	680.8
432.075	687.8
432.484	694
432.893	683.8
433.302	706.8
433.711	736.4
434.099	697
434.508	680.2
434.918	676.2
435.327	691
435.737	693
436.125	688.8
436.534	695
436.944	679.8
437.353	695.2
437.763	710.2
438.173	678.4
438.561	692.2
438.971	661.4
439.381	676.4
439.791	690
440.201	660.8
440.589	680.4
440.999	692.6
441.409	687
441.819	668
442.23	697.2
442.619	694.2
443.029	678
443.439	682.8
443.85	697.2
444.26	702.4
444.649	695.8
445.06	680.8
445.471	667.4
445.881	676.8
446.292	696.6
446.682	701.8
447.092	663
447.503	735.6
447.914	683.6
448.325	679.2
448.715	675.4
449.126	668.2
449.537	675.4
449.948	679
450.338	670.6
450.75	683
451.161	677.8
451.572	695.8
451.984	669.8
452.374	666
452.786	674.4
453.197	685.6
453.609	690.8
453.999	667.8
454.411	669.6
454.823	693.4
455.235	677.8
455.647	676.8
456.037	680
456.449	665
456.862	682.6
457.274	679.6
457.665	670.4
458.077	681.2
458.489	709
458.902	674.6
459.293	676.2
459.705	676.4
460.118	675.6
460.53	671.6
460.921	671.2
461.334	683.4
461.747	672.8
462.16	692.8
462.551	695.2
462.964	684
463.377	671.6
463.79	677.8
464.182	691.8
464.595	673.6
465.008	684.6
465.421	680.8
465.813	668.6
466.226	681
466.64	673
467.053	736.6
467.445	689.8
467.859	695
468.272	677.2
468.686	695
469.078	676
469.492	664.6
469.906	686.6
470.298	694.2
470.712	674.4
471.126	743.2
471.54	672.2
471.933	667.4
472.347	677.6
472.761	668.2
473.175	668.4
473.568	673.4
473.982	666.2
474.397	684.2
474.79	679.8
475.204	686.2
475.619	680.6
476.033	680.6
476.426	684.2
476.841	670.2
477.256	707.4
477.649	671.6
478.064	666.4
478.479	665.4
478.872	665.4
479.287	654.6
479.702	667.8
480.118	671.8
480.511	668.4
480.927	670
481.342	666
481.736	675.2
482.151	669
482.566	680.2
482.96	679.8
483.376	686
483.792	673.8
484.186	668.6
484.602	666.2
485.017	676.2
485.412	676.2
485.827	685.4
486.243	670
486.638	706
487.054	680.8
487.47	689.8
487.865	662
488.281	672.6
488.697	665.8
489.092	672.2
489.508	671.4
489.925	686
490.32	661.8
490.736	679
491.153	676
491.548	676.2
491.964	684.6
492.381	650.6
492.776	677.4
493.193	668
493.61	684.8
494.006	678.4
494.422	676.4
494.84	668.6
495.235	677.2
495.652	673.4
496.069	676.6
496.465	658.4
496.883	678
497.3	703.2
497.696	667
498.113	685.6
498.509	664.2
498.927	662.4
499.344	667.8
499.741	667.6
500.158	689.4
500.576	681.6
500.973	673.4
501.39	662
501.787	651.2
502.205	672.6
502.623	663.2
503.02	648.8
503.438	658.2
503.856	670.2
504.253	672.4
504.671	679.4
505.068	668.4
505.486	664.4
505.905	696.8
506.302	667.6
506.72	681.6
507.118	654.4
507.536	666.2
507.955	670.2
508.352	676.2
508.771	678.6
509.169	678.4
509.587	661.2
510.006	665.2
510.404	655.6
510.823	659.6
511.221	660.4
511.64	670.2
512.038	683.2
512.457	670.4
512.877	665
513.275	660.2
513.694	672.6
514.092	666.8
514.512	675.8
514.91	663.8
515.33	668.8
515.749	672.4
516.148	673.4
516.568	675.2
516.966	667.6
517.386	671
517.785	663.4
518.205	674.6
518.603	663.6
519.024	665.2
519.444	675.2
519.843	682.2
520.263	692.6
520.662	674.6
521.082	673.6
521.481	680.6
521.902	667.4
522.301	671.6
522.722	675.4
523.121	673
523.542	674.8
523.963	674.8
524.362	676
524.783	674.8
525.183	667.8
525.604	675.6
526.003	664.8
526.425	665.8
526.824	675.4
527.246	679.4
527.646	684.4
528.067	674.4
528.467	674.2
528.888	678
529.289	666.2
529.71	673
530.11	662.4
530.532	669.4
530.932	669
531.354	664.6
531.755	698.8
532.176	680
532.577	664.6
532.999	673.2
533.4	662.8
533.822	677.8
534.223	675.6
534.645	667.4
535.046	663.8
535.468	661.4
535.869	687.6
536.292	657.6
536.693	709.4
537.115	674.6
537.516	658.2
537.939	658.2
538.34	697
538.742	681.2
539.165	664.8
539.566	676.6
539.989	658.2
540.391	671
540.814	671.6
541.216	669.6
541.639	673
542.041	673
542.464	664.4
542.866	660.2
543.268	656.6
543.691	667
544.093	686.6
544.517	697
544.919	651.4
545.343	692.2
545.745	664.8
546.147	671.4
546.571	664.4
546.974	653.2
547.398	669.8
547.8	681.2
548.224	662.8
548.627	662
549.03	663.4
549.454	655.8
549.857	650.8
550.281	665.4
550.684	667.8
551.087	674
551.512	668.2
551.915	671.6
552.34	664.6
552.743	661
553.146	665.8
553.571	663.2
553.975	695.6
554.399	647.4
554.803	721.2
555.207	659.4
555.632	655
556.036	663.6
556.461	659.2
556.865	670.2
557.268	665.4
557.694	665
558.098	670.8
558.502	671.8
558.927	665.2
559.332	667.8
559.736	662.4
560.162	676
560.566	666.2
560.992	670
561.396	676
561.801	655.2
562.227	672.4
562.631	665.6
563.036	676.2
563.462	687
563.867	659
564.272	648.4
564.698	669.4
565.103	654.4
565.508	687
565.935	662.6
566.34	674.6
566.745	684.6
567.172	663
567.577	689
567.982	683.2
568.409	671.8
568.815	655.6
569.22	662
569.626	679.8
570.053	651.4
570.459	665.6
570.865	676
571.292	671.8
571.698	674.4
572.104	647.6
572.531	662.8
572.937	674.8
573.343	659.4
573.75	662.4
574.177	669.2
574.583	668.2
574.99	662.4
575.396	671.2
575.824	666.8
576.231	675.8
576.637	655.4
577.065	685.6
577.472	668.6
577.879	664.6
578.286	681.2
578.714	654.4
579.121	657
579.528	666.4
579.935	676.4
580.364	665.8
580.771	653
581.178	661.2
581.585	677.8
582.014	678.4
582.421	666.4
582.829	661.2
583.236	675
583.644	663.6
584.073	673.6
584.481	664.6
584.889	659.4
585.296	668.8
585.726	668.4
586.134	659.4
586.542	657.2
586.95	687.6
587.358	653.2
587.787	675.8
588.196	656.8
588.604	663.8
589.012	674
589.421	652.4
589.851	663.8
590.259	672.8
590.668	668
591.076	707.8
591.485	657.4
591.894	665.2
592.324	679
592.733	683
593.142	655.2
593.551	655.2
593.96	703.6
594.369	647.8
594.8	656.8
595.209	677.8
595.618	647.2
596.028	652.2
596.437	651.8
596.847	662
597.256	662.6
597.687	670
598.097	660
598.507	649.4
598.917	671.8
599.327	673.6
599.736	673.4
600.146	678
600.556	668.8
600.988	679.2
601.398	659.6
601.808	672.6
602.219	657
602.629	671
603.039	670.2
603.45	693.6
603.86	673
604.271	677.8
604.703	662.8
605.114	661
605.525	663
605.935	678.2
606.346	686.2
606.757	674.2
607.168	662.6
607.579	662.4
607.99	679.6
608.402	662.6
608.813	672.8
609.224	656.8
609.636	655.2
610.047	651.8
610.48	667.2
610.892	673.8
611.303	670
611.715	665.6
612.127	657.4
612.539	658.2
612.95	656.8
613.362	654.2
613.774	643.2
614.186	650.8
614.599	662
615.011	669.4
615.423	662
615.835	656.2
616.248	653.2
616.66	676.8
617.073	657.8
617.485	663.8
617.898	672.2
618.311	661.4
618.723	670
619.136	697.4
619.549	676.8
619.962	687.2
620.375	671
620.788	670
621.201	657.2
621.614	675.6
622.028	667.6
622.441	671.8
622.854	680.4
623.268	659.8
623.681	676.8
624.095	671
624.509	671.6
624.922	666.6
625.336	654.8
625.728	666.8
626.142	671.2
626.556	683.8
626.97	666
627.384	663.4
627.799	663.4
628.213	682.6
628.627	661.2
629.041	664.6
629.456	664.2
629.87	659
630.285	668.4
630.699	670.4
631.093	665.6
631.507	672
631.922	669.8
632.337	680.4
632.752	654.6
633.167	657.2
633.582	654.8
633.997	651.8
634.412	655.4
634.806	666.8
635.221	654.8
635.637	683.2
636.052	658.8
636.468	672.6
636.883	685.4
637.299	660.8
637.715	643.6
638.109	664.6
638.525	645
638.941	672.4
639.357	666.4
639.773	675
640.189	656.2
640.584	667.8
641	667.6
641.416	651.8
641.832	659.6
642.249	655.4
642.665	662.4
643.06	674.2
643.477	669.2
643.894	648
644.31	664
644.727	661.4
645.123	661.6
645.54	647.8
645.957	658.4
646.374	671.6
646.77	660.6
647.187	690.8
647.604	662.4
648.021	646.2
648.439	649.8
648.835	664.2
649.252	652.6
649.67	651
650.088	665.4
650.484	660
650.902	677.2
651.32	675
651.738	656.2
652.134	658.6
652.552	677.2
652.971	667.6
653.389	657.2
653.786	672.8
654.204	684.2
654.622	655.2
655.019	660.8
655.438	665.4
655.857	672.4
656.275	672.6
656.673	656.4
657.091	741
657.51	644
657.908	668.2
658.327	673.8
658.746	642.6
659.144	671.2
659.563	669.4
659.982	673
660.38	648.8
660.8	650.8
661.219	678
661.617	677.6
662.037	656
662.457	672
662.855	640.2
663.275	698.6
663.695	666.2
664.094	653.8
664.514	667.4
664.934	655.4
665.333	673.6
665.753	645.8
666.152	643.2
666.572	656.2
666.993	674.2
667.392	653.6
667.812	661
668.212	662.2
668.632	672.4
669.053	658.4
669.453	667.4
669.874	668.8
670.273	673.8
670.694	650.4
671.116	677.2
671.515	673.2
671.937	654.4
672.337	666
672.758	664.6
673.158	673.8
673.58	649.6
673.98	671.8
674.402	677.2
674.824	657.6
675.224	657.6
675.646	655.4
676.047	651.8
676.469	661
676.869	670.4
677.292	660.2
677.693	659.2
678.115	650.4
678.516	672.8
678.939	665
679.34	660.2
679.762	669.8
680.164	667.6
680.586	658
680.988	668
681.411	687.4
681.812	658.6
682.236	658.2
682.637	647
683.061	652.4
683.462	677.4
683.864	651.6
684.288	667.6
684.69	655.8
685.114	669.8
685.516	675
685.94	645
686.342	670.6
686.766	651.4
687.168	657
687.571	685.4
687.995	666.6
688.398	643.8
688.822	654
689.225	689.2
689.628	679.6
690.052	660.2
690.456	665.2
690.88	658.8
691.284	646.6
691.687	668.8
692.112	642.2
692.515	658
692.919	669.8
693.344	666.8
693.747	656
694.173	659.2
694.577	670.8
694.98	662.4
695.406	651
695.81	665.8
696.214	667.4
696.64	663.6
697.044	668
697.448	683
697.874	655.2
698.279	667.4
698.684	652.6
699.11	653.4
699.514	655.2
699.919	655.6
700.324	650.4
700.75	658
701.156	660.4
701.561	667
701.987	669.8
702.393	678.2
702.798	674
703.203	665.4
703.63	655.2
704.036	668.8
704.442	662.8
704.847	650.8
705.274	663.2
705.68	663.4
706.086	669.6
706.492	655.6
706.92	660
707.326	674
707.732	653.8
708.139	646.6
708.545	648.8
708.973	650.4
709.38	658.4
709.786	644.8
710.193	679.2
710.6	662.6
711.028	649
711.435	657.6
711.842	651
712.249	656.6
712.656	667.4
713.064	659
713.492	649.4
713.9	656
714.307	673
714.715	660.2
715.123	667.8
715.53	658.4
715.938	668.8
716.367	658.4
716.775	657.4
717.184	643.2
717.592	653.2
718	661.6
718.408	700.2
718.816	708.6
719.225	663
719.633	665.8
720.042	656
720.472	663.6
720.881	692.2
721.29	666
721.699	653
722.108	655.8
722.517	661.4
722.926	651.6
723.335	667.4
723.744	659.2
724.154	661.4
724.563	660.8
724.973	659.2
725.382	659.4
725.792	662.6
726.202	649.4
726.612	688
727.022	665.4
727.432	661
779.813	659.2
780.223	699.2
780.634	659.4
781.044	653.2
781.454	663.4
781.865	668.2
782.276	651
782.686	675.4
783.097	660.2
783.508	654.2
783.919	665.8
784.33	670.2
784.741	672
785.152	648.4
785.563	642.4
785.974	651.4
786.386	671
786.776	656.6
787.188	659.2
787.599	648.6
788.011	659.8
788.423	660.6
788.835	648.8
789.247	649.4
789.659	659.2
790.071	660.2
790.483	701.6
790.874	657
791.286	670.6
791.699	659.8
792.111	660.4
792.524	664.6
792.937	651.6
793.349	644
793.741	654
794.154	660.2
794.567	677
794.98	648.6
795.393	638.4
795.785	675.2
796.198	638.2
796.612	663.2
797.026	652.6
797.439	637.6
797.831	656
798.245	646
798.659	649.6
799.073	656
799.487	644.2
799.88	648.4
800.294	659.2
800.708	664.8
801.123	661
801.516	676.8
801.93	652.2
802.345	635.4
802.76	663.4
803.153	666.4
803.568	672.2
803.983	661.8
804.377	657.4
804.792	636.2
805.207	640.2
805.601	649.8
806.016	692.6
806.432	645.6
806.826	693.6
807.242	672.4
807.658	663.6
808.052	652.2
808.468	656.8
808.884	648.6
809.279	654.2
809.695	671.2
810.111	674.8
810.506	660.8
810.922	677.8
811.339	652
811.734	671
812.151	654.4
812.546	642.6
812.963	654.8
813.38	661.4
813.776	661.6
814.193	680.8
814.589	646.6
815.006	649.4
815.402	641
815.82	651
816.237	654
816.633	657.8
817.051	654.2
817.448	662
817.866	651.2
818.262	687.8
818.68	649.8
819.077	643.8
819.495	661.6
819.892	705.6
820.311	648
820.708	654
821.127	650.4
821.524	670.8
821.943	658.8
822.34	673.6
822.759	663.8
823.157	651
823.576	673.4
823.974	661.2
824.393	776.2
824.791	650.6
825.189	654.8
825.609	648.8
826.007	658.6
826.427	637.6
826.826	653.6
827.246	656
827.644	641.6
828.043	660.4
828.463	650.8
828.862	671.8
829.261	669
829.682	649.6
830.081	661.2
830.502	654.2
830.901	660.8
831.301	653.6
831.722	631.8
832.121	664.8
832.521	648
832.943	660.4
833.342	657.4
833.742	654.8
834.164	653.2
834.564	649.8
834.965	657
835.386	655.4
835.787	650.6
836.188	654.4
836.588	653.6
837.01	652.6
837.411	643.8
837.812	665.6
838.213	658.6
838.636	655.8
839.037	732.2
839.438	670.6
839.84	662.2
840.263	665.2
840.664	653.2
841.066	661
841.468	664.6
841.891	648.4
842.293	667.6
842.695	665
843.098	670.4
843.5	652.2
843.902	658.4
844.326	664.8
844.729	653.8
845.131	678.2
845.534	662
845.937	669.6
846.34	677.8
846.764	650.2
847.167	666.8
847.571	645.2
847.974	656.4
848.377	648.8
848.781	703.8
849.184	666.8
849.588	646.8
849.992	650.8
850.396	661.6
850.821	679
851.225	655.4
851.63	656.2
852.034	667.2
852.438	658.6
852.843	802.6
853.247	643
853.652	649.8
854.057	676
854.462	663
854.867	661.6
855.272	690.6
855.677	662.6
856.082	650
856.487	638.6
856.893	660.4
857.298	654.4
857.704	655.2
858.11	657.8
858.516	659.2
858.922	656.8
859.328	663.8
859.734	658.2
860.14	657.4
860.525	655.6
860.931	653
861.338	653.6
861.745	663.2
862.151	673.8
862.558	652.8
862.965	651.2
863.372	650.6
863.779	641.2
864.186	676.4
864.572	651.8
864.98	678.2
865.387	690.6
865.795	635
866.203	657.6
866.61	643.6
867.018	658.8
867.405	662.8
867.813	663.2
868.221	656.4
868.63	644.4
869.038	666.6
869.425	699.6
869.834	653.6
870.243	648
870.652	645.6
871.039	647.6
871.448	655.6
871.857	661.4
872.266	657.6
872.654	652.4
873.064	655.2
873.473	662.8
873.883	645
874.271	644.4
874.681	666
875.091	647.2
875.48	667.6
875.89	676
876.3	646.6
876.689	643.8
877.1	653
877.51	657.2
877.9	678.8
878.31	658.8
878.721	694
879.111	658.6
879.522	655.4
879.933	650
880.323	641.6
880.734	648.8
881.125	654
881.536	649.6
881.948	642.4
882.338	660.4
882.75	664.4
883.141	651.4
883.553	657.6
883.944	683.6
884.356	653.6
884.769	652.8
885.16	656.6
885.573	659.2
885.964	644.8
886.377	655.2
886.768	649.6
887.181	651.6
887.573	646.2
887.987	666.4
888.378	665.8
888.792	661
889.184	699.4
889.598	650
889.99	663.2
890.383	652
890.797	643.8
891.19	667.4
891.604	648.8
891.997	640.2
892.411	643.8
892.805	645.2
893.198	646.4
893.613	640.4
894.006	648.8
894.421	641.4
894.815	649.6
895.209	643.2
895.624	685
896.018	669.2
896.412	648.6
896.828	647.6
897.222	662.4
897.617	655.4
898.033	678.2
898.427	656.6
898.822	656.2
899.239	643
899.634	643.8
900.029	665.4
900.424	649.8
900.841	639.8
901.236	663.2
901.632	661.6
902.027	720.6
902.445	659
902.841	658.4
903.237	647
903.633	671.6
904.05	657.4
904.447	657.6
904.843	664.8
905.24	644.6
905.636	636.2
906.033	640.6
906.451	669.6
906.848	646.6
907.246	643.6
907.643	642.8
908.04	660.8
908.438	661.4
908.835	650.8
909.254	655.8
909.652	657.8
910.05	650.2
910.448	649.4
910.846	654.2
911.244	639.6
911.643	655
912.041	657.2
912.44	666.2
912.839	646.8
913.237	649
913.636	635.4
914.035	655.8
914.434	652.6
914.834	665.4
915.233	654.6
915.633	641.2
916.032	642.2
916.432	649
916.832	655.6
917.232	638.6
917.632	640.6
918.032	648.2
918.432	645.4
918.833	649.8
919.233	645.6
919.634	637.6
920.035	652.4
920.436	655.2
920.837	659.8
921.238	655
921.639	654
922.019	654.8
922.42	660.4
922.822	653
923.224	649.8
923.625	650.8
924.027	650.4
924.429	685.2
924.81	649.8
925.212	659.6
925.615	651.6
926.017	648.4
926.42	670
926.801	657.2
927.204	653.6
927.607	654
928.01	675.2
928.413	656.4
928.795	640.2
929.199	643.2
929.602	647.4
930.006	641.2
930.388	632.6
930.792	665.8
931.196	653.4
931.579	684
931.983	652
932.388	716.6
932.771	653.4
933.176	646.2
933.58	656.4
933.964	663.2
934.369	644.8
934.774	656.6
935.158	649.4
935.563	650.6
935.947	649
936.353	665.2
936.759	647.2
937.143	663.4
937.549	654.6
937.934	660.8
938.34	681.2
938.746	644.2
939.131	645
939.538	637.8
939.923	659.6
940.33	646
940.716	648.8
941.123	655.4
941.508	671.6
941.916	667.4
942.302	652.8
942.709	643.2
943.096	644.6
943.503	655.2
943.89	654.6
944.298	644.4
944.685	688.2
945.072	655.8
945.48	661
945.867	654.4
946.276	642.2
946.663	680.4
947.051	672.2
947.46	668.4
947.848	650
948.257	646.2
948.645	656.8
949.033	640.8
949.443	638.6
949.831	693.4
950.22	644.6
950.63	658.6
951.018	680
951.407	648
951.796	649
952.207	666.2
952.596	656.6
952.985	645.4
953.375	699
953.786	651.8
954.176	642.2
954.566	659.2
954.956	631.8
955.367	650.8
955.758	673.8
956.148	639.4
956.539	662.8
956.929	656.6
957.341	642.2
957.732	646.4
958.123	657
958.515	646.4
958.906	650.4
959.297	654.6
959.689	658.6
960.102	638.8
960.494	653.8
960.886	652.8
961.278	640.6
961.67	675.2
962.062	696
962.455	651.8
962.847	634.8
963.24	654
963.633	645.2
964.026	640
964.419	662.4
964.812	672.6
965.206	633.4
965.599	659.4
965.993	651
966.386	647.2
966.78	664.8
967.174	652.6
967.569	646.4
967.963	642.2
968.357	643.8
968.752	652.2
969.146	647
969.541	639.8
969.936	651.2
970.331	654.4
970.705	641.2
971.1	643.2
971.496	664.6
971.892	638.8
972.287	647.6
972.683	654
973.079	648.4
973.454	658.2
973.85	637.8
974.247	658.4
974.643	674.8
975.04	648.4
975.415	652.8
975.812	649.4
976.209	647.8
976.607	646.2
976.982	665.6
977.38	668.4
977.778	651.4
978.175	646.8
978.552	655.4
978.95	658
979.348	658.2
979.725	701.6
980.123	649.8
980.522	658.6
980.899	648.4
981.298	645.8
981.697	648.8
982.075	644.6
982.474	631
982.852	646.2
983.251	656
983.651	652.2
984.029	647
984.429	641
984.808	641
985.208	637.2
985.609	632.8
985.987	637.2
986.388	641.2
986.768	661.8
987.168	648.2
987.548	658.2
987.949	659
988.329	654.8
988.731	634.2
989.111	653
989.491	647.4
989.893	646.4
990.273	649.4
990.676	642.8
991.057	637.8
991.459	644.8
991.84	646.2
992.221	635
992.624	664.6
993.006	657
993.388	654.4
993.791	657.6
994.173	655.8
994.576	686.8
994.959	636.2
995.341	647.4
995.724	647
996.128	645
996.511	642
996.894	637.8
997.298	638.8
997.681	651.6
998.065	643.6
998.448	644.2
998.854	658.4
999.237	635.2
999.621	668
1000.01	668.6
1000.39	644.2
1000.8	652.8
1001.18	663.6
1001.56	657
1001.95	657.4
1002.33	654.2
1002.72	650
1003.13	645.6
1003.51	642.4
1003.9	645.8
1004.28	660
1004.67	644
1005.06	651.2
1005.44	684.4
1005.83	635.8
1006.21	642.8
1006.6	643.6
1006.99	655.8
1007.37	658.2
1007.76	645
1060.12	639.2
1060.51	644.6
1060.89	649.8
1061.28	659.4
1061.67	661.8
1062.06	652.8
1062.45	650.2
1062.83	637.6
1063.22	660.2
1063.61	689.2
1064	661.8
1064.39	649.4
1064.78	644.4
1065.14	661.4
1065.53	655.2
1065.92	651.2
1066.31	642
1066.7	650.6
1067.09	654.4
1067.46	659.8
1067.85	645.4
1068.24	635.8
1068.63	648.6
1069.02	637
1069.39	650.2
1069.78	645.2
1070.17	641.4
1070.57	642.8
1070.93	654.6
1071.33	636.4
1071.72	652.8
1072.11	644.8
1072.48	636.4
1072.87	648.4
1073.26	646.4
1073.64	642.4
1074.03	629.6
1074.4	643.8
1074.79	641.8
1075.19	654.2
1075.56	653.4
1075.95	657.2
1076.34	645.6
1076.72	641
1077.11	651
1077.48	661.6
1077.88	644
1078.25	643.6
1078.64	654.4
1079.02	656.8
1079.41	656.4
1079.78	652.6
1080.18	651
1080.55	733.6
1080.95	640.2
1081.32	647.6
1081.72	657
1082.09	653.2
1082.49	645.2
1082.86	643
1083.24	635
1083.63	639
1084.01	651.4
1084.38	652.2
1084.78	636.4
1085.16	651.8
1085.55	664.4
1085.93	663.4
1086.31	641
1086.7	684.4
1087.08	648
1087.46	647.2
1087.83	645
1088.23	647.2
1088.61	650.4
1088.99	654.8
1089.36	634.4
1089.76	640.4
1090.14	643.6
1090.52	648.4
1090.9	645.6
1091.27	651.8
1091.67	680.2
1092.05	657.4
1092.43	647.4
1092.81	657.8
1093.19	644.8
1093.57	640
1093.95	648.6
1094.35	656.6
1094.73	659.6
1095.11	647.4
1095.49	650.2
1095.87	646.2
1096.25	662.8
1096.63	657.2
1097.01	644.2
1097.39	650.6
1097.77	648
1098.15	642.4
1098.53	627.8
1098.91	650.6
1099.29	645.2
1099.68	669.6
1100.06	656.8
1100.44	651.6
1100.82	655
1101.18	652.8
1101.56	636.8
1101.95	633.8
1102.33	641
1102.71	649.8
1103.1	641
1103.48	631.2
1103.86	644.8
1104.22	644.8
1104.61	642.6
1104.99	652
1105.38	628.8
1105.76	648.8
1106.12	644.8
1106.51	684.2
1106.89	664
1107.26	642.6
1107.64	653.4
1108.03	647.4
1108.41	642.4
1108.78	649.2
1109.16	652.6
1109.55	653.6
1109.91	635.2
1110.3	632.4
1110.69	656.8
1111.05	638.8
1111.44	644
1111.8	654.6
1112.19	651.2
1112.58	654.4
1112.94	642
1113.33	651
1113.7	647.4
1114.09	642.4
1114.45	641.8
1114.84	649.2
1115.21	663.8
1115.6	645
1115.96	654
1116.35	645.6
1116.72	641.6
1117.11	656.4
1117.48	645.8
1117.85	645.8
1118.24	664
1118.6	645
1118.99	638
1119.36	656.2
1119.73	637.4
1120.12	641.8
1120.49	636.6
1120.86	647.2
1121.25	647.6
1121.62	640.4
1121.99	646
1122.38	666.2
1122.76	652.6
1123.13	639.2
1123.5	654.4
1123.89	658
1124.26	636
1124.63	646.6
1125	657
1125.4	638
1125.77	636.4
1126.14	629.6
1126.51	646
1126.88	648.8
1127.26	639.8
1127.63	628.4
1128.02	638.2
1128.4	637.4
1128.77	647.2
1129.14	640
1129.52	647.2
1129.89	648
1130.26	641.6
1130.64	638
1131.01	644
