#lambda/nm	C1
208.295	541.2
208.67	490.8
209.045	457.6
209.419	451.2
209.794	687.2
210.169	669.2
210.544	807.2
210.919	697.4
211.295	677.8
211.67	679.4
212.045	688.8
212.421	683
212.796	726
213.172	683.8
213.547	675.2
213.923	687.4
214.299	681.4
214.675	688.4
215.051	682.8
215.427	694.2
215.803	699.8
216.179	690.8
216.555	679.2
216.932	699.2
217.308	688
217.684	682.6
218.061	694.4
218.438	689.6
218.814	678
219.191	690
219.568	680.8
219.945	676
220.322	688.2
220.699	701.8
221.076	693.6
221.453	692
221.83	683.6
222.208	678.6
222.585	678.8
222.962	695.6
223.34	693.4
223.717	689.4
224.095	684.4
224.473	693.8
224.851	675.8
225.229	675
225.607	702.8
225.985	676.8
226.363	688
226.741	683.8
227.119	684
227.497	696.8
227.876	671
228.254	691.2
228.633	691.8
229.011	689.4
229.39	689.2
229.769	689
230.148	702.2
230.527	717.8
230.905	682.4
231.284	696.4
231.664	686.6
232.043	703.2
232.422	694.6
232.801	682.4
233.181	691.2
233.56	684.4
233.94	689.6
234.319	672
234.699	685.2
235.079	737.6
235.458	732.4
235.838	710.2
236.218	680.4
236.598	677.8
236.978	673.8
237.358	686.6
237.738	678.8
238.119	698.6
238.499	668.8
238.88	694.2
239.26	702.2
239.641	677.2
240.021	680.2
240.402	690.8
240.783	687.4
241.163	681.8
241.544	682
241.925	685
242.306	705.8
242.687	672.4
243.069	681.2
243.45	698.2
243.831	677.2
244.212	679.4
244.594	724.6
244.975	689.2
245.357	688.6
245.739	678.8
246.12	687.4
246.502	702.2
246.884	681
247.266	688
247.648	686
248.03	711.4
248.412	683
248.794	695
249.176	684.2
249.559	698.6
249.941	682.6
250.323	670.4
250.706	677.2
251.089	690.8
251.471	690.8
251.854	692.4
252.237	693.4
252.62	690.6
253.002	688.8
253.385	693.4
253.769	712.6
254.152	689.8
254.535	694.2
254.918	680.8
255.301	685.6
255.685	680.4
256.068	678.6
256.452	717.4
256.835	695.8
257.219	696.4
257.603	707.6
257.986	680.6
258.37	701
258.754	678.6
259.138	700.6
259.522	704.2
259.906	689.8
260.29	696.4
260.675	691.2
261.059	693
261.443	670.2
261.828	697.6
262.212	695
262.597	669.2
262.981	679.8
263.366	691
263.751	694.4
264.136	685.2
264.521	678.2
264.906	673
265.291	699
265.676	680.2
266.061	687.6
266.446	710.6
266.831	691
267.217	716.8
267.602	693.6
267.987	683.2
268.373	690.4
268.759	706.8
269.144	699.8
269.53	684.6
269.916	684
270.302	677
270.688	700
271.074	693.8
271.46	695.4
271.846	727.2
272.232	680.4
272.618	684.4
273.004	687.6
273.391	702.6
273.777	703.2
274.164	690.4
274.55	706.2
274.937	699
275.324	692.8
275.71	698
276.097	697.4
276.484	672.6
276.871	691
277.258	692.2
277.645	677.2
278.032	677.2
278.419	692.4
278.807	699.8
279.194	681.2
279.581	680.2
279.969	688.4
280.356	696.2
280.744	688.8
281.131	722
281.519	704.4
281.907	693.8
282.295	683.2
282.682	701
283.07	696
283.458	702.6
283.846	705.6
284.235	701.8
284.623	710.4
285.011	680
285.399	680.2
285.788	692.6
286.176	675.8
286.565	710.8
286.953	677.4
287.342	679.4
287.731	679.8
288.119	672.2
288.508	681
288.897	692.8
289.286	673.2
289.675	687.2
290.064	701.8
290.453	681.2
290.821	691.4
291.21	709.6
291.599	679.4
291.989	681.4
292.378	707.8
292.768	712.4
293.157	691.6
293.547	702.4
293.936	685.6
294.326	683.2
294.716	689.2
295.106	684.8
295.496	694.4
295.886	697.6
296.276	685.6
296.666	681.8
297.056	679
297.446	677.8
297.836	706
298.227	692.4
298.617	704
299.008	702.6
299.398	695.6
299.789	682.6
300.179	687
300.57	700.6
300.961	688.6
301.352	685
301.742	701.2
302.133	690.8
302.524	689.6
302.915	697.8
303.307	686.6
303.698	711
304.089	694.6
304.48	684.8
304.872	702.2
305.263	697.4
305.655	687.4
306.046	700.4
306.438	692.6
306.829	686.8
307.221	709.8
307.613	687
308.005	705.2
308.397	701
308.789	717.4
309.181	712.8
309.573	700.6
309.965	709.4
310.357	687.6
310.749	709.6
311.142	681
311.534	678
311.926	702.8
312.319	696
312.711	674.2
313.104	706.2
313.497	691.4
313.889	727.4
314.282	704
314.675	726
315.068	690.4
315.461	700.6
315.854	723
316.247	696.2
316.64	694.4
317.033	698
317.405	701.4
317.798	686.8
318.192	691.8
318.585	685.4
318.979	699.6
319.372	685.2
319.766	691
320.16	701
320.553	702.6
320.947	717.8
321.341	690.2
321.735	684.6
322.129	676.4
322.523	721.6
322.917	684
323.311	707.4
323.705	697.2
324.099	701.2
324.494	705.6
324.888	695.2
325.282	689.2
325.677	711
326.071	701.6
326.466	707
326.861	687.6
327.255	712
327.65	715
328.045	706.6
328.44	692.2
328.835	696.8
329.23	678.4
329.625	725
330.02	677.4
330.415	719
330.81	701.2
331.206	692.6
331.601	676.4
331.996	698.6
332.37	723.8
332.766	667
333.161	719.6
333.557	687.8
333.953	695.8
334.348	1056.8
334.744	697.6
335.14	687.6
335.536	689.4
335.932	716.6
336.328	694.6
336.724	705.6
337.12	703
337.516	698.8
337.913	687.2
338.309	706.4
338.705	688.6
339.102	700.8
339.498	689.2
339.895	701
340.291	684.2
340.688	698.2
341.085	677.8
341.481	691.4
341.878	687.6
342.275	712.6
342.672	681
343.069	679
343.466	676
343.842	695.4
344.239	677
344.636	696.4
345.033	680.2
345.431	684.8
345.828	680.8
346.225	678
346.623	723.8
347.02	694.6
347.418	694.6
347.816	703
348.213	673.6
348.611	696.8
349.009	687.2
349.407	708
349.805	655.6
350.203	681
350.601	694.4
350.999	682.6
351.397	755.4
351.795	699
352.193	699.6
352.57	694.2
352.969	699.6
353.367	676
353.766	679.2
354.164	684.2
354.563	700.8
354.961	693.2
355.36	682.6
355.759	691.8
356.158	672.2
356.557	674.8
356.956	687.8
357.355	671.8
357.754	696.4
358.153	692.8
358.552	717.8
358.951	681.2
359.35	701.4
359.75	688
360.149	675.2
360.527	664.8
360.926	663
361.326	682
361.726	693.4
362.125	677.8
362.525	698.8
362.925	682.6
363.325	685.8
363.724	681.4
364.124	682.4
364.524	672.4
364.924	684.8
365.324	698
365.725	675.6
366.125	693.4
366.525	689.4
366.904	675.4
367.304	670
367.705	704.4
368.105	691.4
368.506	687
368.906	691.2
369.307	680.2
369.708	692.4
370.108	667.6
370.509	692.2
370.91	674.6
371.311	686.6
371.712	687.2
372.113	682
372.514	666.4
372.894	684
373.295	681
373.696	700.2
374.097	692.2
374.499	714
374.9	687.6
375.301	671.2
375.703	688.4
376.105	669.8
376.506	681.6
376.908	690
377.309	680.6
377.711	693.8
378.113	677.8
378.493	687.6
378.895	684.2
379.297	695.8
379.699	669.6
380.102	688.4
380.504	680.4
380.906	676.4
381.308	714.2
381.71	687
382.113	697.4
382.515	672.2
382.918	688.2
383.299	673
383.701	687.2
384.104	686.2
384.507	657.2
384.909	679
385.312	673.2
385.715	668
386.118	682.6
386.521	671.6
386.924	703.2
387.327	674.6
387.709	677.4
388.112	673.2
388.515	679
388.918	678
389.322	695.4
389.725	676.6
390.129	714
390.532	683.8
390.936	669
391.339	666.6
391.743	678
392.125	668.6
392.529	689.2
392.933	687.8
393.337	675.2
393.74	679.8
394.144	681.2
394.548	673.4
394.953	684.4
395.357	684
395.761	682.6
396.144	694
396.548	681.8
396.952	688.6
397.357	683.6
397.761	679.2
398.166	670.8
398.57	679
398.975	670.8
399.379	681
399.763	745.2
400.168	682.8
400.572	678.8
400.977	678
401.382	713.6
401.787	685
402.192	703
402.597	697.8
403.002	668.6
403.386	698.2
403.791	710
404.197	674
404.602	692.6
405.007	686.4
405.413	682.8
405.818	679
406.224	674
406.608	679.8
407.014	672.2
407.42	704.2
407.825	684
408.231	699.6
408.637	687.4
409.043	698.6
409.449	681.4
409.834	677.6
410.24	691.2
410.646	703.8
411.052	693.4
411.458	690.8
411.865	690.2
412.271	694.6
412.677	683
413.062	678.6
413.469	669.8
413.875	713
414.282	698
414.689	683.6
415.095	689
415.502	674.6
415.888	684.2
416.294	669.6
416.701	726.6
417.108	678.2
417.515	694.4
417.923	678
418.33	703
418.715	703
419.123	679.2
419.53	682.4
419.937	682.6
420.345	700.2
420.752	681.4
421.16	694.8
421.546	692.6
421.953	689.6
422.361	682.8
422.769	686.6
423.177	669.2
423.585	701.4
423.992	705.2
424.379	693.8
424.787	694.4
425.195	701
425.603	685
426.011	689.8
426.419	698.2
426.806	683
427.214	686.6
427.623	699.6
428.031	699
428.44	689.8
428.848	703.6
429.235	708.2
429.644	687.4
430.053	686.2
430.461	697
430.87	713.2
431.279	702.2
431.666	687
432.075	687.8
432.484	696.8
432.893	679.2
433.302	708.2
433.711	749
434.099	687.2
434.508	688.8
434.918	669.2
435.327	705.4
435.737	680.8
436.125	678.8
436.534	685.6
436.944	689.8
437.353	686.4
437.763	706.6
438.173	670
438.561	692.4
438.971	665.2
439.381	688
439.791	686.2
440.201	655.2
440.589	692.6
440.999	690
441.409	686.6
441.819	667
442.23	691.8
442.619	688
443.029	677.8
443.439	687.4
443.85	696.8
444.26	696.4
444.649	692.2
445.06	685
445.471	682.4
445.881	679.2
446.292	700.4
446.682	705.2
447.092	664.4
447.503	730.4
447.914	687.4
448.325	679.8
448.715	685.2
449.126	681.8
449.537	684.4
449.948	695.4
450.338	679.4
450.75	690.8
451.161	684.4
451.572	684.4
451.984	668.8
452.374	649.4
452.786	671.8
453.197	690.4
453.609	682.8
453.999	659.8
454.411	671.6
454.823	689
455.235	683.2
455.647	670.4
456.037	683.6
456.449	652.6
456.862	675.8
457.274	679
457.665	675.6
458.077	680.4
458.489	713.8
458.902	678.8
459.293	683.4
459.705	686.6
460.118	667
460.53	677
460.921	678
461.334	678.4
461.747	678.8
462.16	697
462.551	695.2
462.964	687.4
463.377	667.8
463.79	670.6
464.182	685.4
464.595	676.4
465.008	681.6
465.421	681.2
465.813	680.8
466.226	689
466.64	677.8
467.053	724.2
467.445	687.8
467.859	698.6
468.272	681.2
468.686	696
469.078	676.2
469.492	660
469.906	686.4
470.298	683.8
470.712	670.4
471.126	748.2
471.54	669.8
471.933	662.4
472.347	673
472.761	668.4
473.175	671.4
473.568	671.4
473.982	665.2
474.397	680.4
474.79	667.8
475.204	684.2
475.619	684.6
476.033	684.8
476.426	682
476.841	668.2
477.256	704
477.649	666.4
478.064	664.8
478.479	668.4
478.872	670.2
479.287	661
479.702	673.8
480.118	673.4
480.511	672.2
480.927	677
481.342	669.4
481.736	684.6
482.151	666.8
482.566	686.8
482.96	671
483.376	686.4
483.792	670
484.186	682.6
484.602	672.8
485.017	668.2
485.412	677.4
485.827	676
486.243	672
486.638	696.4
487.054	687.6
487.47	685.8
487.865	668.6
488.281	664.6
488.697	680.2
489.092	675.2
489.508	662.2
489.925	685.6
490.32	665
490.736	682.4
491.153	677
491.548	672.6
491.964	689.4
492.381	660
492.776	677.8
493.193	671.8
493.61	672.4
494.006	674.4
494.422	678.8
494.84	664.8
495.235	679
495.652	670.6
496.069	668.8
496.465	663.6
496.883	680.4
497.3	700.8
497.696	658.8
498.113	675.4
498.509	661.8
498.927	653.2
499.344	667.6
499.741	662.4
500.158	683.8
500.576	682
500.973	672
501.39	659.2
501.787	661.6
502.205	679.8
502.623	655.4
503.02	665.4
503.438	673.4
503.856	667.8
504.253	682.6
504.671	678.8
505.068	660.8
505.486	667.8
505.905	695.6
506.302	669.8
506.72	685.8
507.118	664.6
507.536	672.4
507.955	669.8
508.352	674.6
508.771	677.8
509.169	671.2
509.587	664.4
510.006	675.2
510.404	658.6
510.823	664.8
511.221	667.4
511.64	664.2
512.038	682.8
512.457	673.2
512.877	669.2
513.275	669
513.694	671.4
514.092	669.8
514.512	670.6
514.91	664.4
515.33	673.4
515.749	669.6
516.148	671.6
516.568	673.4
516.966	673.2
517.386	668.4
517.785	662.6
518.205	662.4
518.603	667.6
519.024	669.8
519.444	677.8
519.843	681.2
520.263	680.8
520.662	675.6
521.082	672.4
521.481	675.2
521.902	673.6
522.301	672.8
522.722	675.8
523.121	672.6
523.542	669
523.963	668.8
524.362	677.8
524.783	678.4
525.183	667.2
525.604	667.4
526.003	661.8
526.425	660.2
526.824	677.8
527.246	672.2
527.646	681
528.067	681.4
528.467	668.4
528.888	670.2
529.289	667.2
529.71	677.6
530.11	664.8
530.532	661.4
530.932	665.8
531.354	654.8
531.755	704
532.176	681.2
532.577	664.2
532.999	670
533.4	673.4
533.822	684.8
534.223	677.8
534.645	672
535.046	669.4
535.468	669.8
535.869	688.6
536.292	664.8
536.693	716
537.115	677
537.516	661.8
537.939	659.8
538.34	691.4
538.742	680.4
539.165	667
539.566	663.2
539.989	662.8
540.391	667.2
540.814	673.4
541.216	674.2
541.639	669.4
542.041	675.4
542.464	657.8
542.866	659.6
543.268	660.8
543.691	678.4
544.093	679.4
544.517	698.8
544.919	659.6
545.343	695
545.745	662.8
546.147	675.2
546.571	672.8
546.974	659.6
547.398	673.6
547.8	688.2
548.224	664.4
548.627	661.8
549.03	678
549.454	659.4
549.857	649.8
550.281	662.2
550.684	659
551.087	675.8
551.512	677.8
551.915	673.4
552.34	673
552.743	662.6
553.146	663.8
553.571	669.8
553.975	686.2
554.399	671.6
554.803	731.4
555.207	665.8
555.632	664
556.036	673.2
556.461	652.6
556.865	670
557.268	665.6
557.694	664.8
558.098	674.2
558.502	678.6
558.927	660
559.332	668
559.736	663.6
560.162	672.4
560.566	664.6
560.992	669.8
561.396	672.8
561.801	661.8
562.227	660.8
562.631	666.8
563.036	661.8
563.462	668
563.867	664.8
564.272	646
564.698	677.4
565.103	660.6
565.508	690
565.935	665
566.34	655.8
566.745	683.8
567.172	660.6
567.577	678.8
567.982	675.4
568.409	678.8
568.815	658.4
569.22	669.4
569.626	677.4
570.053	655.8
570.459	673.8
570.865	677.2
571.292	677.4
571.698	673
572.104	650.6
572.531	665.6
572.937	683.2
573.343	669.6
573.75	662.2
574.177	667.6
574.583	671.2
574.99	664.8
575.396	683.2
575.824	665.2
576.231	673.2
576.637	658.8
577.065	697.6
577.472	666.6
577.879	670.4
578.286	684
578.714	655.4
579.121	664.4
579.528	669.2
579.935	684.4
580.364	667.6
580.771	646.2
581.178	659.8
581.585	668.8
582.014	673.4
582.421	658.4
582.829	664
583.236	677.4
583.644	658.6
584.073	658.4
584.481	663.2
584.889	668.6
585.296	677.2
585.726	678.4
586.134	652.4
586.542	654
586.95	693.8
587.358	644
587.787	668.8
588.196	658.4
588.604	664.8
589.012	672.2
589.421	659.8
589.851	662.2
590.259	674.6
590.668	664.6
591.076	705
591.485	665.8
591.894	671.6
592.324	687
592.733	683
593.142	649.2
593.551	664.4
593.96	660.6
594.369	648.8
594.8	658.6
595.209	672.2
595.618	650
596.028	656.8
596.437	655.8
596.847	662
597.256	666.4
597.687	666.4
598.097	661.6
598.507	651.8
598.917	656.6
599.327	672.6
599.736	657.2
600.146	669.4
600.556	664
600.988	673
601.398	660.8
601.808	679.2
602.219	659.4
602.629	669.4
603.039	664.6
603.45	690.6
603.86	663.4
604.271	685.6
604.703	672.4
605.114	668.6
605.525	672.4
605.935	675.8
606.346	696.8
606.757	676.2
607.168	660.8
607.579	659.6
607.99	677.6
608.402	662
608.813	668.8
609.224	663
609.636	664.2
610.047	651
610.48	670.8
610.892	675.6
611.303	676.8
611.715	663.2
612.127	658
612.539	663.2
612.95	675.6
613.362	650.2
613.774	656.8
614.186	664.6
614.599	655.8
615.011	675.8
615.423	665.8
615.835	662.4
616.248	649
616.66	664.4
617.073	650.2
617.485	661.4
617.898	672.2
618.311	666
618.723	671
619.136	696.2
619.549	689
619.962	690.2
620.375	655.8
620.788	668
621.201	655.6
621.614	669
622.028	653.4
622.441	661.2
622.854	685.2
623.268	651.6
623.681	674.6
624.095	660.8
624.509	676
624.922	664.8
625.336	646.2
625.728	664.2
626.142	682.6
626.556	695.2
626.97	664.2
627.384	655.6
627.799	660.2
628.213	677.2
628.627	658.6
629.041	665.2
629.456	654.8
629.87	662.4
630.285	671
630.699	670
631.093	666.6
631.507	669
631.922	662
632.337	677.4
632.752	656.6
633.167	664.6
633.582	660.6
633.997	654.4
634.412	657.6
634.806	668.2
635.221	657.4
635.637	672.8
636.052	651.6
636.468	662
636.883	680.4
637.299	663.6
637.715	650.2
638.109	674.4
638.525	649.8
638.941	687.2
639.357	659.8
639.773	671.2
640.189	657.2
640.584	666.2
641	663.6
641.416	654.6
641.832	659.8
642.249	658.2
642.665	661.2
643.06	668.4
643.477	674.6
643.894	653
644.31	662.2
644.727	670.4
645.123	653
645.54	657.4
645.957	664.6
646.374	676.4
646.77	664.8
647.187	706.6
647.604	662.2
648.021	652.2
648.439	653.8
648.835	666.4
649.252	663.8
649.67	665.6
650.088	666.6
650.484	667.4
650.902	670.2
651.32	665.4
651.738	659.4
652.134	667.6
652.552	689.6
652.971	671.8
653.389	660.2
653.786	674.4
654.204	685.6
654.622	655.6
655.019	662.8
655.438	675.8
655.857	662.4
656.275	669.6
656.673	661
657.091	746.2
657.51	660.2
657.908	676
658.327	686.4
658.746	648
659.144	660.4
659.563	675.4
659.982	665.8
660.38	658
660.8	669.6
661.219	669
661.617	671.8
662.037	659.4
662.457	672.2
662.855	657.6
663.275	687.2
663.695	657.6
664.094	656
664.514	669.8
664.934	655.6
665.333	664.4
665.753	660.8
666.152	649.2
666.572	668.2
666.993	677
667.392	660.6
667.812	658.8
668.212	665.4
668.632	671.4
669.053	660.8
669.453	672.4
669.874	665.2
670.273	666.4
670.694	650.2
671.116	677
671.515	677.4
671.937	669.2
672.337	667
672.758	658
673.158	680.6
673.58	650
673.98	663.4
674.402	669.8
674.824	653.6
675.224	658.4
675.646	655.2
676.047	662.2
676.469	657.4
676.869	670.8
677.292	669
677.693	658.4
678.115	656
678.516	683.6
678.939	666.2
679.34	665.2
679.762	678
680.164	671.8
680.586	659.8
680.988	664
681.411	683
681.812	657.6
682.236	650.2
682.637	658
683.061	645.4
683.462	660.4
683.864	664.2
684.288	666.8
684.69	654.6
685.114	672.2
685.516	678.2
685.94	653.4
686.342	672.6
686.766	662.6
687.168	655
687.571	682.4
687.995	657.8
688.398	647.6
688.822	665.6
689.225	688
689.628	688
690.052	667
690.456	669.8
690.88	661.8
691.284	651.2
691.687	665.4
692.112	651.6
692.515	653
692.919	659.8
693.344	662.6
693.747	651
694.173	654
694.577	667.8
694.98	666.2
695.406	662.2
695.81	670
696.214	660.8
696.64	667
697.044	666.6
697.448	676.6
697.874	651
698.279	667.8
698.684	655
699.11	651.2
699.514	650.6
699.919	662.6
700.324	660.8
700.75	664.8
701.156	664.8
701.561	669.8
701.987	672.8
702.393	674
702.798	672
703.203	655.4
703.63	652.4
704.036	651.2
704.442	653.8
704.847	652.8
705.274	661.4
705.68	667.4
706.086	673.4
706.492	646.6
706.92	658.2
707.326	675.8
707.732	668
708.139	657.8
708.545	654.8
708.973	668
709.38	658.2
709.786	650.4
710.193	679.2
710.6	663.4
711.028	651.6
711.435	654.8
711.842	673.4
712.249	655.2
712.656	660.8
713.064	665.8
713.492	656.8
713.9	650
714.307	667
714.715	658.2
715.123	666.2
715.53	659.4
715.938	674
716.367	662.8
716.775	658.2
717.184	651.8
717.592	659
718	671
718.408	699.8
718.816	709.6
719.225	670.2
719.633	668.6
720.042	649.4
720.472	659.6
720.881	680.2
721.29	668
721.699	652.6
722.108	673.4
722.517	654.4
722.926	661.2
723.335	669
723.744	660.4
724.154	660
724.563	659.8
724.973	657.8
725.382	661.4
725.792	664.8
726.202	652.4
726.612	681.6
727.022	658.2
727.432	652
779.813	657.4
780.223	710.2
780.634	661.4
781.044	647.4
781.454	663
781.865	675.6
782.276	658.2
782.686	670.6
783.097	662.8
783.508	658.6
783.919	666.4
784.33	680.6
784.741	672
785.152	647.6
785.563	635
785.974	648
786.386	665.2
786.776	651.8
787.188	654.8
787.599	652.6
788.011	665.2
788.423	665
788.835	648.8
789.247	651.2
789.659	658
790.071	653
790.483	704
790.874	658.6
791.286	665.2
791.699	651.4
792.111	663.6
792.524	669.2
792.937	662.4
793.349	644.8
793.741	655.6
794.154	656.2
794.567	673.4
794.98	662.8
795.393	640.2
795.785	673
796.198	649.4
796.612	647.6
797.026	651.8
797.439	637.4
797.831	662
798.245	639
798.659	658.6
799.073	650.8
799.487	643.2
799.88	649.4
800.294	649.8
800.708	659.4
801.123	653.4
801.516	684.6
801.93	637.4
802.345	644
802.76	663
803.153	678.8
803.568	666.4
803.983	679.8
804.377	664.4
804.792	646
805.207	645.6
805.601	651.6
806.016	697.4
806.432	648.8
806.826	689.6
807.242	668.8
807.658	664.6
808.052	655.8
808.468	651
808.884	649.4
809.279	661.8
809.695	677.2
810.111	671.6
810.506	667
810.922	671
811.339	651.2
811.734	658.4
812.151	655.2
812.546	650.4
812.963	655.8
813.38	671.4
813.776	655.6
814.193	688.8
814.589	657.8
815.006	659.6
815.402	644.2
815.82	647.2
816.237	655.8
816.633	656.2
817.051	648.2
817.448	654.4
817.866	654.8
818.262	666.8
818.68	655.6
819.077	650.4
819.495	656
819.892	701.8
820.311	646.2
820.708	656.2
821.127	651
821.524	669.8
821.943	659
822.34	674.8
822.759	668.4
823.157	663.4
823.576	670.8
823.974	673.4
824.393	736.4
824.791	655.6
825.189	652
825.609	660.6
826.007	656.4
826.427	648.4
826.826	650.4
827.246	659.4
827.644	638.8
828.043	669.2
828.463	659.4
828.862	665.8
829.261	662.6
829.682	639.8
830.081	660.2
830.502	643.8
830.901	667.2
831.301	657.6
831.722	653.2
832.121	652.8
832.521	658.8
832.943	640.2
833.342	658
833.742	644.6
834.164	650.6
834.564	646.6
834.965	659.6
835.386	647.2
835.787	648.8
836.188	652.2
836.588	660.2
837.01	655.2
837.411	648.6
837.812	666.4
838.213	663
838.636	654.8
839.037	739.6
839.438	664.2
839.84	657.6
840.263	668.6
840.664	658.2
841.066	653
841.468	663.6
841.891	652.6
842.293	677.8
842.695	667.2
843.098	674
843.5	655.8
843.902	664.8
844.326	662.2
844.729	668.2
845.131	669.6
845.534	661
845.937	667.6
846.34	669.8
846.764	655.4
847.167	666.2
847.571	651
847.974	656.2
848.377	657
848.781	706.4
849.184	667.4
849.588	648.4
849.992	655.2
850.396	665.2
850.821	682
851.225	661.8
851.63	663.4
852.034	670
852.438	660
852.843	700.4
853.247	646.8
853.652	650.8
854.057	673.2
854.462	664
854.867	659.6
855.272	687
855.677	662
856.082	649.8
856.487	641
856.893	657.2
857.298	659.8
857.704	652
858.11	661
858.516	667
858.922	655.6
859.328	664.6
859.734	651.8
860.14	667.6
860.525	662.6
860.931	649.4
861.338	649.8
861.745	658.4
862.151	657.4
862.558	657.8
862.965	657.4
863.372	644.4
863.779	648.6
864.186	671.8
864.572	656.6
864.98	674.4
865.387	689.4
865.795	647.2
866.203	673.8
866.61	652.8
867.018	666
867.405	671
867.813	663.2
868.221	651.4
868.63	649.8
869.038	664.6
869.425	700
869.834	658.4
870.243	653
870.652	655.6
871.039	664
871.448	658.6
871.857	659.4
872.266	662
872.654	650.4
873.064	649
873.473	677.8
873.883	644.2
874.271	647
874.681	661.8
875.091	647.4
875.48	673.8
875.89	667.2
876.3	653.2
876.689	643.8
877.1	663.4
877.51	665.4
877.9	679.4
878.31	648
878.721	690.8
879.111	661.6
879.522	654.4
879.933	641.8
880.323	634
880.734	646.2
881.125	654.6
881.536	652
881.948	649.4
882.338	651
882.75	667
883.141	639.4
883.553	665.8
883.944	685.2
884.356	661
884.769	655.4
885.16	657.8
885.573	650.4
885.964	648.2
886.377	650
886.768	644
887.181	653.6
887.573	641.8
887.987	658.6
888.378	666.8
888.792	660.6
889.184	699.6
889.598	647.4
889.99	650.8
890.383	652.4
890.797	639.4
891.19	671.8
891.604	649.6
891.997	634.8
892.411	640.6
892.805	652.6
893.198	647.6
893.613	642
894.006	643.2
894.421	649
894.815	640.2
895.209	649.4
895.624	710.6
896.018	675.2
896.412	648
896.828	649
897.222	663.4
897.617	656.6
898.033	671.4
898.427	648.2
898.822	649.6
899.239	639
899.634	640
900.029	665.2
900.424	651.2
900.841	638.4
901.236	663.4
901.632	653.2
902.027	714.8
902.445	659
902.841	657.6
903.237	660.6
903.633	666.2
904.05	649
904.447	652.8
904.843	666.4
905.24	658.2
905.636	634
906.033	651
906.451	662.6
906.848	641.4
907.246	652
907.643	652
908.04	655.2
908.438	669.6
908.835	655.6
909.254	651.6
909.652	662.2
910.05	641.4
910.448	647.6
910.846	660.4
911.244	632.4
911.643	661
912.041	647
912.44	658.6
912.839	643.8
913.237	646.2
913.636	642.6
914.035	655.8
914.434	652
914.834	672
915.233	660.2
915.633	646
916.032	640.2
916.432	645
916.832	674.2
917.232	659.8
917.632	639
918.032	658
918.432	660.6
918.833	645.2
919.233	647.4
919.634	638.6
920.035	653.2
920.436	643.8
920.837	655
921.238	645.6
921.639	651
922.019	649.4
922.42	651.4
922.822	665.6
923.224	662
923.625	654
924.027	658.6
924.429	670.2
924.81	656.6
925.212	661.6
925.615	653
926.017	655
926.42	657.8
926.801	653.8
927.204	654.6
927.607	659.6
928.01	668.4
928.413	652.8
928.795	639.6
929.199	646
929.602	641.6
930.006	646
930.388	646.4
930.792	662.4
931.196	656.6
931.579	691.6
931.983	647.4
932.388	704
932.771	643.8
933.176	645.8
933.58	650.2
933.964	658.8
934.369	643
934.774	661.4
935.158	655.6
935.563	657.8
935.947	657.2
936.353	659.8
936.759	651.4
937.143	656.6
937.549	656.2
937.934	664.6
938.34	679.6
938.746	641.2
939.131	649.2
939.538	644.4
939.923	659.8
940.33	644
940.716	653.2
941.123	662.2
941.508	662.8
941.916	675.4
942.302	663.2
942.709	639.4
943.096	648.4
943.503	660.4
943.89	649.8
944.298	650
944.685	688.2
945.072	646.6
945.48	667.8
945.867	641
946.276	651
946.663	681.8
947.051	666.8
947.46	678.6
947.848	663.4
948.257	642
948.645	650.8
949.033	640.6
949.443	640
949.831	698.2
950.22	642.4
950.63	667.2
951.018	688.2
951.407	654.4
951.796	640.8
952.207	667.4
952.596	661.8
952.985	644.8
953.375	698.8
953.786	660.6
954.176	636
954.566	663.4
954.956	637.2
955.367	641.4
955.758	682.2
956.148	639.2
956.539	664.2
956.929	639
957.341	638.4
957.732	649.8
958.123	661
958.515	642
958.906	663.8
959.297	641.2
959.689	641.6
960.102	646.8
960.494	659
960.886	658
961.278	644.4
961.67	676.6
962.062	694
962.455	655
962.847	641.8
963.24	639
963.633	659.6
964.026	646
964.419	649.8
964.812	661.6
965.206	643.6
965.599	658
965.993	651.2
966.386	647.4
966.78	654.4
967.174	665.6
967.569	644.8
967.963	641.6
968.357	649.6
968.752	648.8
969.146	652
969.541	643.4
969.936	645.6
970.331	659.6
970.705	655.4
971.1	643.4
971.496	663.4
971.892	647.2
972.287	647.4
972.683	650.8
973.079	650
973.454	668
973.85	653.2
974.247	665
974.643	678.6
975.04	645.6
975.415	656.2
975.812	646
976.209	648.6
976.607	642.4
976.982	668
977.38	665.2
977.778	656.8
978.175	648.8
978.552	650
978.95	661.2
979.348	658.6
979.725	706.4
980.123	647.4
980.522	647.4
980.899	644.4
981.298	645.8
981.697	660.6
982.075	662.2
982.474	651.2
982.852	649.6
983.251	654.2
983.651	643.8
984.029	647.4
984.429	645.2
984.808	637.6
985.208	644.8
985.609	642.8
985.987	641.6
986.388	639.6
986.768	657.6
987.168	649.6
987.548	655.8
987.949	659
988.329	656
988.731	633.4
989.111	638.8
989.491	633.8
989.893	642.8
990.273	658.2
990.676	648.6
991.057	640.6
991.459	643.8
991.84	639.2
992.221	642.6
992.624	670.8
993.006	657
993.388	656.4
993.791	655
994.173	654.6
994.576	689.2
994.959	634.4
995.341	646
995.724	656.2
996.128	648
996.511	657
996.894	646.6
997.298	648.8
997.681	657.8
998.065	644
998.448	648.2
998.854	657.6
999.237	636
999.621	657.6
1000.01	670.6
1000.39	656
1000.8	645
1001.18	652
1001.56	653
1001.95	658.8
1002.33	661
1002.72	646.8
1003.13	645.2
1003.51	650.6
1003.9	650.8
1004.28	668.6
1004.67	648
1005.06	654.6
1005.44	678.8
1005.83	634.8
1006.21	650.2
1006.6	640.6
1006.99	666
1007.37	660.6
1007.76	651.4
1060.12	642.4
1060.51	636.2
1060.89	651
1061.28	646.8
1061.67	662.2
1062.06	658.2
1062.45	644.2
1062.83	644
1063.22	653
1063.61	685.8
1064	664.4
1064.39	649.6
1064.78	655.2
1065.14	665.4
1065.53	656
1065.92	647.6
1066.31	645.4
1066.7	648.2
1067.09	668
1067.46	660
1067.85	638
1068.24	642.8
1068.63	651.6
1069.02	644
1069.39	651.8
1069.78	653.6
1070.17	634
1070.57	645.4
1070.93	644.8
1071.33	642.2
1071.72	661.4
1072.11	644.4
1072.48	648.2
1072.87	649.8
1073.26	635.4
1073.64	648.8
1074.03	641.2
1074.4	650.2
1074.79	643.6
1075.19	652.2
1075.56	663.8
1075.95	649.6
1076.34	640.8
1076.72	652.4
1077.11	662.6
1077.48	666.6
1077.88	649
1078.25	653.4
1078.64	657.4
1079.02	653.4
1079.41	661
1079.78	654.6
1080.18	636.6
1080.55	721.4
1080.95	649.6
1081.32	647.2
1081.72	658
1082.09	660.6
1082.49	640.6
1082.86	654.2
1083.24	637.6
1083.63	645
1084.01	653.6
1084.38	661
1084.78	648.4
1085.16	664.4
1085.55	663.6
1085.93	671.6
1086.31	636.8
1086.7	684.8
1087.08	655
1087.46	646.8
1087.83	639
1088.23	668
1088.61	643.6
1088.99	653
1089.36	646.4
1089.76	646.4
1090.14	655
1090.52	650
1090.9	644.4
1091.27	657.4
1091.67	683.6
1092.05	662.4
1092.43	641.2
1092.81	663.2
1093.19	661.6
1093.57	648.6
1093.95	646
1094.35	661.6
1094.73	662.2
1095.11	638.8
1095.49	641.6
1095.87	651.6
1096.25	658
1096.63	659.6
1097.01	645
1097.39	650.8
1097.77	645.2
1098.15	650.6
1098.53	636.6
1098.91	654
1099.29	653.8
1099.68	673
1100.06	656.6
1100.44	648.4
1100.82	653.4
1101.18	657.6
1101.56	648.4
1101.95	640.6
1102.33	658
1102.71	648.2
1103.1	637.2
1103.48	639.8
1103.86	636.8
1104.22	651
1104.61	642.4
1104.99	644.6
1105.38	642.8
1105.76	648
1106.12	641.4
1106.51	679.8
1106.89	657.8
1107.26	647.8
1107.64	662.2
1108.03	645.8
1108.41	641
1108.78	651.2
1109.16	648.2
1109.55	659.4
1109.91	635.6
1110.3	633.8
1110.69	667.8
1111.05	649
1111.44	650
1111.8	657.8
1112.19	656.8
1112.58	652.4
1112.94	645.4
1113.33	645.6
1113.7	638.2
1114.09	636.6
1114.45	640.4
1114.84	647.2
1115.21	651.8
1115.6	652.8
1115.96	645
1116.35	647.4
1116.72	651.6
1117.11	662.2
1117.48	649.2
1117.85	641.6
1118.24	657.8
1118.6	651.4
1118.99	636.4
1119.36	656.2
1119.73	658.6
1120.12	647.4
1120.49	639.4
1120.86	651.2
1121.25	642.6
1121.62	645
1121.99	636.6
1122.38	655.8
1122.76	657.6
1123.13	643.6
1123.5	653.4
1123.89	657
1124.26	643
1124.63	653.4
1125	646.8
1125.4	635.2
1125.77	642.8
1126.14	618
1126.51	644.2
1126.88	647.2
1127.26	637.8
1127.63	632.8
1128.02	639.8
1128.4	636.8
1128.77	643.4
1129.14	645.6
1129.52	643.4
1129.89	646.2
1130.26	644.2
1130.64	628
1131.01	650.8
