#lambda/nm	C1
208.295	557.6
208.67	499.4
209.045	461.8
209.419	459.2
209.794	687.4
210.169	670.4
210.544	803.2
210.919	700.6
211.295	685.6
211.67	690
212.045	686.4
212.421	678.8
212.796	728.4
213.172	692.8
213.547	676.8
213.923	683.8
214.299	686.4
214.675	698
215.051	696.2
215.427	700.4
215.803	711
216.179	692.2
216.555	681.6
216.932	690.8
217.308	694.8
217.684	683.6
218.061	692
218.438	690.2
218.814	694.8
219.191	692.2
219.568	674.8
219.945	691.4
220.322	691.6
220.699	690
221.076	694.4
221.453	687.4
221.83	680.4
222.208	682.2
222.585	685.4
222.962	686.2
223.34	690.6
223.717	687.4
224.095	696.2
224.473	689
224.851	679.4
225.229	672.4
225.607	706.6
225.985	674.8
226.363	695.2
226.741	691.4
227.119	690
227.497	712.6
227.876	667.4
228.254	692.4
228.633	696.8
229.011	694.6
229.39	694.6
229.769	687.8
230.148	694.8
230.527	713.4
230.905	684.2
231.284	691.4
231.664	689.8
232.043	695.2
232.422	695.8
232.801	686.8
233.181	699.2
233.56	696.8
233.94	696
234.319	676.8
234.699	693.8
235.079	743.2
235.458	739.8
235.838	709.6
236.218	680.2
236.598	688.2
236.978	674.6
237.358	687
237.738	688
238.119	699.2
238.499	684.8
238.88	702.6
239.26	702.6
239.641	675.6
240.021	671.4
240.402	687.8
240.783	680.2
241.163	684.4
241.544	701
241.925	682.8
242.306	705.6
242.687	678.2
243.069	692.2
243.45	703
243.831	685.2
244.212	687.8
244.594	741.8
244.975	696.2
245.357	694.2
245.739	676.4
246.12	691
246.502	709.8
246.884	687
247.266	679.2
247.648	685.6
248.03	714
248.412	695.4
248.794	698.4
249.176	681.6
249.559	704.6
249.941	684.2
250.323	671.8
250.706	681
251.089	692.2
251.471	690.6
251.854	691.8
252.237	685.4
252.62	702.6
253.002	685.6
253.385	687.2
253.769	704.2
254.152	687
254.535	696.8
254.918	678.4
255.301	694.8
255.685	687.8
256.068	682.4
256.452	712.8
256.835	699
257.219	689.8
257.603	698.4
257.986	690.4
258.37	696.2
258.754	674.4
259.138	701
259.522	696.4
259.906	682
260.29	696.8
260.675	695.8
261.059	688.4
261.443	680
261.828	697.8
262.212	690
262.597	683.4
262.981	688.8
263.366	700.8
263.751	694.6
264.136	677.8
264.521	681.4
264.906	682
265.291	700.4
265.676	691.8
266.061	696.2
266.446	712.6
266.831	688.4
267.217	708.8
267.602	698.8
267.987	697
268.373	682.2
268.759	695.8
269.144	696.8
269.53	695.2
269.916	680.4
270.302	684.8
270.688	698.6
271.074	685.8
271.46	706.2
271.846	724.6
272.232	683.6
272.618	685
273.004	681.2
273.391	703.2
273.777	701.4
274.164	693.4
274.55	698.2
274.937	697.2
275.324	690.4
275.71	705.8
276.097	703.6
276.484	680.4
276.871	692.2
277.258	697.2
277.645	673.4
278.032	693
278.419	671.8
278.807	695.6
279.194	671.4
279.581	683.2
279.969	690
280.356	687.2
280.744	686.6
281.131	723.6
281.519	704
281.907	680
282.295	686.2
282.682	693.2
283.07	693.4
283.458	701.8
283.846	708.2
284.235	707.4
284.623	709.2
285.011	684.2
285.399	693
285.788	692.6
286.176	674.4
286.565	706
286.953	680.2
287.342	687.6
287.731	675.8
288.119	683.2
288.508	686.4
288.897	686.8
289.286	682.8
289.675	690.4
290.064	701.8
290.453	689.8
290.821	690.8
291.21	705
291.599	689.4
291.989	688.8
292.378	695.8
292.768	715
293.157	685.2
293.547	686.4
293.936	686
294.326	681
294.716	689.4
295.106	687.6
295.496	693
295.886	701.2
296.276	691.6
296.666	690.4
297.056	686
297.446	679.4
297.836	700.2
298.227	695.2
298.617	689.4
299.008	703.2
299.398	686.6
299.789	681.6
300.179	692
300.57	709.6
300.961	687.2
301.352	688.2
301.742	698.2
302.133	691
302.524	685.6
302.915	689.6
303.307	679.8
303.698	704
304.089	700.2
304.48	684.8
304.872	702.6
305.263	682
305.655	681.6
306.046	698.4
306.438	701
306.829	678.6
307.221	704.6
307.613	698.4
308.005	700.6
308.397	701.8
308.789	716.8
309.181	726.2
309.573	714.6
309.965	714
310.357	697.8
310.749	708.4
311.142	684.6
311.534	687
311.926	700.2
312.319	692.6
312.711	691.8
313.104	710.6
313.497	693
313.889	731.6
314.282	710.6
314.675	725.4
315.068	694.2
315.461	707.6
315.854	727.2
316.247	700.8
316.64	699.8
317.033	701.8
317.405	701.8
317.798	694.8
318.192	699.2
318.585	681.6
318.979	697.8
319.372	683.4
319.766	690.2
320.16	714
320.553	720.4
320.947	718
321.341	690.8
321.735	701.6
322.129	681.8
322.523	726.8
322.917	690.4
323.311	706.6
323.705	693.2
324.099	702.2
324.494	711.2
324.888	703.8
325.282	703.4
325.677	700.6
326.071	707
326.466	701.4
326.861	698.4
327.255	713.6
327.65	716.8
328.045	713
328.44	693.8
328.835	691.8
329.23	683.6
329.625	718.6
330.02	686.4
330.415	719.4
330.81	696
331.206	704.6
331.601	680.6
331.996	710.8
332.37	718.8
332.766	689.4
333.161	716.2
333.557	693.6
333.953	701
334.348	1130.8
334.744	700.2
335.14	693
335.536	689
335.932	710.6
336.328	688.2
336.724	704.8
337.12	693.4
337.516	699.2
337.913	692.8
338.309	707.6
338.705	693
339.102	701.4
339.498	690.6
339.895	707
340.291	693.8
340.688	706.4
341.085	693
341.481	698
341.878	685.2
342.275	718
342.672	692.8
343.069	686.2
343.466	688.2
343.842	703.4
344.239	685.2
344.636	689.6
345.033	682.4
345.431	688
345.828	694.6
346.225	687.2
346.623	734
347.02	691.6
347.418	700.6
347.816	709.4
348.213	677.4
348.611	698.6
349.009	694.2
349.407	697.4
349.805	682
350.203	675.2
350.601	702.6
350.999	688.2
351.397	762.4
351.795	691.2
352.193	700.4
352.57	696.2
352.969	707
353.367	675.2
353.766	675.8
354.164	684.8
354.563	697.6
354.961	685.2
355.36	682.8
355.759	689.2
356.158	671.6
356.557	683.8
356.956	675
357.355	673
357.754	701.2
358.153	703.6
358.552	716.6
358.951	685.8
359.35	703.8
359.75	688.6
360.149	681
360.527	664.6
360.926	684.4
361.326	692.6
361.726	679.2
362.125	679
362.525	696.2
362.925	679.8
363.325	683.8
363.724	699.4
364.124	676.2
364.524	670.2
364.924	684.4
365.324	696.8
365.725	669.8
366.125	687.2
366.525	687.8
366.904	674.6
367.304	665.6
367.705	711.4
368.105	700.4
368.506	676.4
368.906	685.2
369.307	686.4
369.708	683.4
370.108	671.6
370.509	694.6
370.91	673.8
371.311	692.8
371.712	693.6
372.113	684
372.514	671.4
372.894	682
373.295	677.6
373.696	695.6
374.097	689.8
374.499	710.2
374.9	682
375.301	670.8
375.703	683
376.105	676.8
376.506	685.8
376.908	694.2
377.309	678.6
377.711	689.8
378.113	676.4
378.493	683.6
378.895	675.6
379.297	697.4
379.699	674.8
380.102	690.2
380.504	680.2
380.906	675.6
381.308	717.6
381.71	673.8
382.113	702.2
382.515	679.2
382.918	682.8
383.299	678
383.701	688.4
384.104	685.4
384.507	661
384.909	684.2
385.312	671.6
385.715	665.2
386.118	676.4
386.521	669.2
386.924	688.6
387.327	673.2
387.709	672
388.112	668.4
388.515	680
388.918	688.2
389.322	689.6
389.725	679.4
390.129	701
390.532	690.2
390.936	679
391.339	676.2
391.743	692.8
392.125	670.6
392.529	696.8
392.933	696.4
393.337	697.8
393.74	683.2
394.144	686.6
394.548	669.6
394.953	684
395.357	690
395.761	686.4
396.144	680.4
396.548	680.6
396.952	678.8
397.357	687
397.761	676
398.166	680.8
398.57	678.4
398.975	672.2
399.379	691.8
399.763	732.2
400.168	683.6
400.572	676.8
400.977	686.8
401.382	703.6
401.787	692.2
402.192	703.2
402.597	696.4
403.002	664.6
403.386	695.2
403.791	691.2
404.197	667.2
404.602	670.8
405.007	681.8
405.413	678
405.818	681.4
406.224	677.6
406.608	679.6
407.014	672.6
407.42	700.2
407.825	685.2
408.231	693
408.637	688.2
409.043	703.4
409.449	683.6
409.834	684.6
410.24	681.6
410.646	698.8
411.052	695
411.458	692.8
411.865	692
412.271	703.2
412.677	690.6
413.062	701.6
413.469	677.4
413.875	711
414.282	693.8
414.689	687.2
415.095	689
415.502	685.2
415.888	689.6
416.294	659.8
416.701	732.4
417.108	676.2
417.515	698.8
417.923	676.6
418.33	711
418.715	699.2
419.123	687.6
419.53	682.2
419.937	688.2
420.345	699
420.752	683.6
421.16	703.2
421.546	683.6
421.953	689.8
422.361	679.8
422.769	691
423.177	676.6
423.585	720.8
423.992	721.2
424.379	709.2
424.787	705
425.195	711.8
425.603	687.4
426.011	708
426.419	711.8
426.806	691.8
427.214	700.4
427.623	702.8
428.031	709.8
428.44	691
428.848	703.4
429.235	700
429.644	692.4
430.053	691
430.461	710
430.87	714.6
431.279	698.2
431.666	684.6
432.075	695.2
432.484	697
432.893	687.4
433.302	708.8
433.711	754.8
434.099	693.6
434.508	690.2
434.918	681.6
435.327	704.4
435.737	707.6
436.125	710.6
436.534	701
436.944	699.8
437.353	701
437.763	725.4
438.173	693.8
438.561	711
438.971	689.2
439.381	707.4
439.791	701.6
440.201	681.4
440.589	717.2
440.999	724.4
441.409	723.6
441.819	708.4
442.23	732.6
442.619	725.6
443.029	724.4
443.439	720.4
443.85	730.6
444.26	729.4
444.649	733.4
445.06	728.2
445.471	712.8
445.881	727
446.292	751.4
446.682	757.8
447.092	716
447.503	781.8
447.914	715.6
448.325	727.6
448.715	731.6
449.126	732.2
449.537	728
449.948	727.4
450.338	735
450.75	744.8
451.161	739
451.572	750.4
451.984	723.2
452.374	720
452.786	733.6
453.197	748.6
453.609	742.6
453.999	726
454.411	732
454.823	749.4
455.235	736.8
455.647	733.4
456.037	729.4
456.449	721.6
456.862	739
457.274	746
457.665	722.8
458.077	750
458.489	771.2
458.902	736
459.293	745.4
459.705	739.8
460.118	732.8
460.53	745.4
460.921	740.6
461.334	736.6
461.747	741.8
462.16	756.4
462.551	756.8
462.964	749.4
463.377	732.6
463.79	750.2
464.182	759.8
464.595	724.2
465.008	747.4
465.421	747.4
465.813	742.8
466.226	744.2
466.64	732.6
467.053	790.2
467.445	757.6
467.859	762.6
468.272	754.2
468.686	751.6
469.078	732
469.492	736.2
469.906	748
470.298	740
470.712	737.4
471.126	805.6
471.54	721.2
471.933	737
472.347	749.8
472.761	749.8
473.175	727.8
473.568	734
473.982	729.6
474.397	737.6
474.79	749
475.204	755.6
475.619	745.2
476.033	737.8
476.426	738.4
476.841	735.4
477.256	777.8
477.649	733
478.064	728.8
478.479	725.6
478.872	735.6
479.287	726.2
479.702	732.8
480.118	734.6
480.511	738.8
480.927	735.4
481.342	736
481.736	752
482.151	724
482.566	753.4
482.96	733.4
483.376	749.2
483.792	725.2
484.186	737.6
484.602	730.2
485.017	734.2
485.412	737.4
485.827	729
486.243	737.8
486.638	765
487.054	743.6
487.47	758.6
487.865	734.2
488.281	727.4
488.697	732.4
489.092	731.8
489.508	720.8
489.925	753.4
490.32	721
490.736	743.6
491.153	735.4
491.548	734.4
491.964	748.6
492.381	712.2
492.776	719.6
493.193	732.6
493.61	740.2
494.006	739
494.422	738.8
494.84	726
495.235	746.6
495.652	724.4
496.069	736.4
496.465	720.2
496.883	724.2
497.3	763.2
497.696	722.2
498.113	731.8
498.509	709.4
498.927	720
499.344	713.2
499.741	715.6
500.158	731.4
500.576	735
500.973	722.8
501.39	707.6
501.787	711.8
502.205	722.2
502.623	718.2
503.02	704.6
503.438	714.8
503.856	716.6
504.253	720.2
504.671	716.2
505.068	716.6
505.486	716
505.905	739
506.302	713.8
506.72	720.4
507.118	701.6
507.536	711.6
507.955	705.4
508.352	711.6
508.771	718.8
509.169	726
509.587	706.4
510.006	711.8
510.404	699.2
510.823	708.2
511.221	707.2
511.64	716
512.038	726.6
512.457	706.8
512.877	709.2
513.275	698.8
513.694	708.6
514.092	719.8
514.512	715.6
514.91	708.8
515.33	719
515.749	722.8
516.148	714.2
516.568	719.4
516.966	712.4
517.386	708.6
517.785	711.6
518.205	713.2
518.603	705.2
519.024	698.4
519.444	706.8
519.843	725.8
520.263	720.4
520.662	715.4
521.082	707
521.481	701.4
521.902	698.2
522.301	699.6
522.722	704.8
523.121	703
523.542	694.4
523.963	698.4
524.362	703.6
524.783	699.2
525.183	694.8
525.604	702.2
526.003	696.6
526.425	693.2
526.824	707
527.246	708.4
527.646	715.8
528.067	700.4
528.467	695.8
528.888	698
529.289	701.4
529.71	691.6
530.11	702.4
530.532	698.6
530.932	682.2
531.354	696.8
531.755	735
532.176	705.4
532.577	694.6
532.999	704.6
533.4	701.4
533.822	712
534.223	699.8
534.645	690.8
535.046	684.8
535.468	700
535.869	712.4
536.292	692
536.693	735.4
537.115	697.6
537.516	691
537.939	686
538.34	711.2
538.742	709.8
539.165	693.4
539.566	696.8
539.989	687.2
540.391	690.4
540.814	692.6
541.216	696
541.639	688.4
542.041	706.6
542.464	693.6
542.866	686.8
543.268	680.6
543.691	694.6
544.093	698.8
544.517	716
544.919	685.6
545.343	716.8
545.745	684
546.147	693.4
546.571	680.8
546.974	680
547.398	695.8
547.8	703.8
548.224	682.6
548.627	681.4
549.03	688
549.454	678.4
549.857	680.6
550.281	683.2
550.684	680.2
551.087	697.4
551.512	697.6
551.915	696.6
552.34	697.6
552.743	675.6
553.146	699.6
553.571	689
553.975	706.2
554.399	688.2
554.803	747.4
555.207	679.8
555.632	676.2
556.036	682
556.461	684
556.865	686
557.268	677.6
557.694	677.4
558.098	686.4
558.502	690.2
558.927	677.8
559.332	670.6
559.736	678.4
560.162	684.4
560.566	676
560.992	686.6
561.396	677.6
561.801	676.4
562.227	676
562.631	676.2
563.036	680
563.462	682.8
563.867	677.8
564.272	669.8
564.698	687.2
565.103	671
565.508	704.2
565.935	682
566.34	675.8
566.745	689
567.172	683.2
567.577	699.2
567.982	699.6
568.409	690.4
568.815	673.8
569.22	673.4
569.626	682.6
570.053	669.2
570.459	678.6
570.865	687.2
571.292	674.2
571.698	687
572.104	668.4
572.531	672.4
572.937	690.4
573.343	671.4
573.75	672
574.177	685.6
574.583	681
574.99	677.8
575.396	682.6
575.824	673.4
576.231	689.4
576.637	673
577.065	701.4
577.472	677.8
577.879	674.8
578.286	690.4
578.714	670.4
579.121	679.2
579.528	684
579.935	688
580.364	686.2
580.771	658.2
581.178	656.6
581.585	676.4
582.014	682.2
582.421	665.8
582.829	671.4
583.236	685.2
583.644	669.6
584.073	674.6
584.481	674
584.889	660.4
585.296	676.2
585.726	669.6
586.134	664
586.542	673.6
586.95	685
587.358	670.6
587.787	672.2
588.196	662.6
588.604	666
589.012	665
589.421	667.6
589.851	666.2
590.259	667.2
590.668	663.6
591.076	724
591.485	665.4
591.894	677.6
592.324	691.6
592.733	690
593.142	656.6
593.551	670.4
593.96	715.2
594.369	655.8
594.8	666.4
595.209	671.4
595.618	657.4
596.028	666.8
596.437	659.4
596.847	681.6
597.256	679.8
597.687	672.4
598.097	672.4
598.507	666.6
598.917	676.4
599.327	687.4
599.736	683
600.146	683.8
600.556	674.8
600.988	685.2
601.398	676.4
601.808	687.8
602.219	668
602.629	674.8
603.039	673.8
603.45	705.4
603.86	673.8
604.271	692.8
604.703	672.2
605.114	662.2
605.525	687.8
605.935	680
606.346	689.2
606.757	670.4
607.168	667.2
607.579	659
607.99	686.6
608.402	669.6
608.813	674.4
609.224	659.6
609.636	661.8
610.047	653.4
610.48	665.6
610.892	675.8
611.303	674.8
611.715	672.8
612.127	651.6
612.539	666.2
612.95	672.4
613.362	656.4
613.774	658.8
614.186	668.6
614.599	660.8
615.011	675.6
615.423	670.8
615.835	661.6
616.248	656.8
616.66	684.8
617.073	662.6
617.485	667
617.898	675.2
618.311	673.6
618.723	672.6
619.136	700
619.549	685.8
619.962	700.2
620.375	665.2
620.788	675.6
621.201	663.4
621.614	677.6
622.028	661.2
622.441	673.2
622.854	679.8
623.268	671
623.681	675
624.095	669.2
624.509	679.4
624.922	671.6
625.336	652
625.728	674.2
626.142	675.2
626.556	699.6
626.97	677.6
627.384	661
627.799	672.4
628.213	673.2
628.627	667.4
629.041	667.2
629.456	669.8
629.87	669
630.285	684.6
630.699	682.2
631.093	669.8
631.507	673.8
631.922	679.8
632.337	683.2
632.752	666.2
633.167	664.8
633.582	663.4
633.997	670.4
634.412	662.4
634.806	663.4
635.221	663
635.637	676.2
636.052	666.2
636.468	668.4
636.883	691
637.299	664.6
637.715	649.8
638.109	666.2
638.525	658.4
638.941	682.6
639.357	675.4
639.773	687
640.189	656.2
640.584	666
641	669.2
641.416	655
641.832	661.8
642.249	664.6
642.665	665.4
643.06	669.6
643.477	685.8
643.894	648.6
644.31	672
644.727	659.2
645.123	664.4
645.54	658.8
645.957	670.6
646.374	689.4
646.77	669.2
647.187	705.4
647.604	666.4
648.021	648.8
648.439	657.4
648.835	673.2
649.252	664.4
649.67	663.2
650.088	670.2
650.484	676.2
650.902	677.8
651.32	673.2
651.738	659.4
652.134	675.8
652.552	687.8
652.971	683.8
653.389	667.4
653.786	685.6
654.204	696.4
654.622	656.2
655.019	666.8
655.438	672.6
655.857	672.8
656.275	673
656.673	660.8
657.091	748.4
657.51	654
657.908	678.8
658.327	687.8
658.746	659
659.144	671.8
659.563	681.2
659.982	680.8
660.38	663.4
660.8	668.2
661.219	679.2
661.617	662.8
662.037	665.4
662.457	680.6
662.855	654.6
663.275	699.6
663.695	675.4
664.094	657
664.514	659.2
664.934	653
665.333	675.2
665.753	657.4
666.152	649.4
666.572	649.2
666.993	679.4
667.392	658.8
667.812	664.2
668.212	663.2
668.632	682
669.053	651.8
669.453	668
669.874	660.4
670.273	668
670.694	661.2
671.116	680.4
671.515	677.4
671.937	659.2
672.337	656.4
672.758	657.8
673.158	669.8
673.58	654.2
673.98	669.8
674.402	679.2
674.824	667.8
675.224	665.4
675.646	659.6
676.047	662.2
676.469	663.6
676.869	670
677.292	673.4
677.693	663.2
678.115	661.4
678.516	669
678.939	670.2
679.34	662.4
679.762	679
680.164	673.4
680.586	653.6
680.988	672.4
681.411	697
681.812	659.6
682.236	661
682.637	658.4
683.061	658.8
683.462	662.4
683.864	669.2
684.288	676.4
684.69	661.2
685.114	680.4
685.516	675
685.94	646.8
686.342	680.2
686.766	653.8
687.168	666.8
687.571	680.6
687.995	662.4
688.398	652.8
688.822	658.6
689.225	678.6
689.628	685.2
690.052	661
690.456	664.6
690.88	663.8
691.284	657.4
691.687	678.2
692.112	645.8
692.515	658
692.919	669.4
693.344	674.8
693.747	662
694.173	654.6
694.577	675
694.98	669.6
695.406	664.2
695.81	666.4
696.214	668.6
696.64	671.4
697.044	663.4
697.448	678.4
697.874	665.4
698.279	661.4
698.684	655.4
699.11	659.4
699.514	662.4
699.919	667.4
700.324	650
700.75	666.8
701.156	670.2
701.561	678.4
701.987	659.6
702.393	685.2
702.798	679.4
703.203	665.4
703.63	663.6
704.036	664.2
704.442	668.8
704.847	654.2
705.274	663
705.68	676
706.086	677
706.492	657.4
706.92	662.2
707.326	674.6
707.732	663.2
708.139	654
708.545	656.8
708.973	653.8
709.38	668.6
709.786	650.6
710.193	675.2
710.6	667
711.028	656.8
711.435	658.2
711.842	658.6
712.249	656.6
712.656	659.2
713.064	674.4
713.492	651.8
713.9	652.2
714.307	677
714.715	663
715.123	669.2
715.53	661.8
715.938	676.2
716.367	665.2
716.775	658.2
717.184	654.8
717.592	660.8
718	669
718.408	707
718.816	703.6
719.225	671.8
719.633	663.6
720.042	655.8
720.472	662
720.881	680.6
721.29	666.2
721.699	658
722.108	664.6
722.517	662.6
722.926	662
723.335	681
723.744	670.2
724.154	664.6
724.563	665.8
724.973	671.6
725.382	660
725.792	659.2
726.202	658.4
726.612	687.8
727.022	662.4
727.432	656.6
779.813	659
780.223	724.4
780.634	663
781.044	655.4
781.454	662.4
781.865	671.6
782.276	650.6
782.686	671.6
783.097	671.8
783.508	662.2
783.919	674.6
784.33	672.8
784.741	675.6
785.152	651.8
785.563	638
785.974	657.2
786.386	670.6
786.776	663.8
787.188	662.6
787.599	654.2
788.011	670
788.423	669.8
788.835	659.2
789.247	659.4
789.659	661.2
790.071	664.2
790.483	708.4
790.874	666.2
791.286	673.2
791.699	660.8
792.111	657
792.524	673
792.937	667.4
793.349	659
793.741	653.2
794.154	662.8
794.567	672.2
794.98	670.4
795.393	643.8
795.785	677
796.198	653.8
796.612	671.8
797.026	657.4
797.439	648.8
797.831	656.2
798.245	650.4
798.659	661.4
799.073	664.2
799.487	663
799.88	664.8
800.294	651.8
800.708	657.8
801.123	660.6
801.516	672.8
801.93	656.8
802.345	655.2
802.76	662.4
803.153	670
803.568	681.6
803.983	669.6
804.377	660
804.792	654.8
805.207	648.8
805.601	664.4
806.016	696.6
806.432	653.4
806.826	697
807.242	682.8
807.658	668.8
808.052	661.2
808.468	658.2
808.884	661
809.279	661.8
809.695	681
810.111	687.4
810.506	663.2
810.922	679.4
811.339	658.8
811.734	671
812.151	650
812.546	652.8
812.963	665
813.38	660.4
813.776	670.4
814.193	677
814.589	654.8
815.006	658.6
815.402	660.4
815.82	658.4
816.237	657
816.633	661.6
817.051	655
817.448	660
817.866	645.2
818.262	683.4
818.68	654.4
819.077	642.4
819.495	661.4
819.892	692.6
820.311	653.6
820.708	652.8
821.127	650
821.524	669.4
821.943	664.6
822.34	686.8
822.759	662.4
823.157	659.4
823.576	673.8
823.974	667.8
824.393	737
824.791	652.4
825.189	647.8
825.609	665.6
826.007	659.6
826.427	642.4
826.826	657
827.246	655.6
827.644	650
828.043	669
828.463	647
828.862	664.6
829.261	672.6
829.682	648.4
830.081	663.4
830.502	647.4
830.901	664.6
831.301	663.6
831.722	645.6
832.121	657.4
832.521	655.4
832.943	659.8
833.342	651.4
833.742	658.2
834.164	658.2
834.564	648
834.965	653
835.386	651.2
835.787	664
836.188	658
836.588	660.4
837.01	659.2
837.411	646.8
837.812	671.8
838.213	662.6
838.636	657
839.037	729
839.438	661
839.84	659
840.263	662.2
840.664	665.8
841.066	650
841.468	660.8
841.891	655.2
842.293	668.4
842.695	663.6
843.098	668
843.5	651
843.902	660.8
844.326	675.8
844.729	663.6
845.131	675.4
845.534	659.6
845.937	676
846.34	679.2
846.764	658.2
847.167	671.4
847.571	655.6
847.974	660
848.377	656
848.781	701.6
849.184	675.4
849.588	655.2
849.992	648.8
850.396	657.4
850.821	677.2
851.225	668.8
851.63	659.6
852.034	670.6
852.438	651
852.843	785.4
853.247	658.2
853.652	644.6
854.057	667.4
854.462	661.8
854.867	663.6
855.272	698
855.677	659.4
856.082	649.8
856.487	649
856.893	666.2
857.298	660.4
857.704	654.6
858.11	661.6
858.516	664.8
858.922	673.2
859.328	670.8
859.734	661
860.14	658
860.525	658.8
860.931	659.6
861.338	657.4
861.745	659
862.151	671.8
862.558	658
862.965	657
863.372	655.6
863.779	659.8
864.186	672.4
864.572	666.4
864.98	677.8
865.387	696
865.795	644.8
866.203	666.4
866.61	647.4
867.018	670.4
867.405	663
867.813	659.6
868.221	661.4
868.63	655
869.038	671.8
869.425	697.6
869.834	656.2
870.243	642.2
870.652	646
871.039	662.4
871.448	653.2
871.857	660.8
872.266	666.8
872.654	662.8
873.064	656
873.473	666
873.883	653.2
874.271	652.6
874.681	673
875.091	651.4
875.48	667.2
875.89	684
876.3	658.8
876.689	644.8
877.1	655.8
877.51	659.4
877.9	683.8
878.31	656
878.721	689.2
879.111	661.8
879.522	654.6
879.933	646.4
880.323	649.2
880.734	651.2
881.125	652.2
881.536	657.2
881.948	645.6
882.338	658.6
882.75	676.2
883.141	660.6
883.553	657.8
883.944	688.6
884.356	675.2
884.769	660.4
885.16	655.8
885.573	663.4
885.964	650.2
886.377	652.4
886.768	649.4
887.181	655.6
887.573	652.4
887.987	664
888.378	678.8
888.792	660.2
889.184	712.6
889.598	658.6
889.99	660.8
890.383	657.4
890.797	654
891.19	675.2
891.604	652
891.997	642
892.411	647.4
892.805	658.6
893.198	653.6
893.613	644
894.006	661.4
894.421	643.2
894.815	646.2
895.209	647
895.624	700.6
896.018	678.4
896.412	658.4
896.828	660.8
897.222	664.8
897.617	655.8
898.033	674.8
898.427	662.6
898.822	667.4
899.239	645.6
899.634	651.8
900.029	678
900.424	653.8
900.841	645.4
901.236	670.6
901.632	665
902.027	728.6
902.445	663.2
902.841	649.4
903.237	660.8
903.633	671.8
904.05	668.8
904.447	666.6
904.843	672
905.24	661.2
905.636	649.6
906.033	653.2
906.451	675
906.848	647
907.246	657.2
907.643	667.6
908.04	654.6
908.438	674.8
908.835	661.8
909.254	663.6
909.652	669.8
910.05	665.4
910.448	653.2
910.846	661.2
911.244	649
911.643	662.4
912.041	663.2
912.44	678.2
912.839	653.4
913.237	649.8
913.636	653.2
914.035	662.8
914.434	655.4
914.834	674.6
915.233	672
915.633	653.2
916.032	657.4
916.432	648.8
916.832	668.4
917.232	657.4
917.632	654.6
918.032	665
918.432	664.8
918.833	655.2
919.233	654.8
919.634	643.6
920.035	661.4
920.436	647.8
920.837	656
921.238	648.2
921.639	653.2
922.019	656.2
922.42	660.8
922.822	657.6
923.224	653.4
923.625	647.2
924.027	659.8
924.429	687.2
924.81	662
925.212	665.6
925.615	655.6
926.017	660
926.42	676.8
926.801	665.6
927.204	659.2
927.607	659.6
928.01	665
928.413	649
928.795	642
929.199	649.4
929.602	654.2
930.006	643.6
930.388	642.2
930.792	663.6
931.196	656.6
931.579	688.4
931.983	643
932.388	699.8
932.771	651.6
933.176	650
933.58	662.2
933.964	656.6
934.369	648.4
934.774	671.2
935.158	646.4
935.563	654.8
935.947	654
936.353	659
936.759	653
937.143	666.4
937.549	659.8
937.934	682.2
938.34	682.6
938.746	653.4
939.131	655
939.538	653
939.923	654.4
940.33	651.8
940.716	663.8
941.123	656
941.508	666
941.916	674.8
942.302	664.4
942.709	637.4
943.096	632.8
943.503	657
943.89	649.4
944.298	649
944.685	685.4
945.072	654.6
945.48	672.2
945.867	652.6
946.276	651.8
946.663	676.8
947.051	674.6
947.46	663.6
947.848	650
948.257	647.2
948.645	650.4
949.033	655.4
949.443	652.4
949.831	693.6
950.22	645.4
950.63	668.4
951.018	689.4
951.407	655.6
951.796	647.2
952.207	663.6
952.596	665
952.985	650.8
953.375	702.2
953.786	649.2
954.176	644.8
954.566	654
954.956	647
955.367	661.8
955.758	681.4
956.148	652.2
956.539	669.8
956.929	648.6
957.341	639.8
957.732	646.8
958.123	676
958.515	645.6
958.906	666.6
959.297	652.6
959.689	647.4
960.102	650.6
960.494	656.6
960.886	646
961.278	648
961.67	679
962.062	705.2
962.455	654.8
962.847	643.2
963.24	646
963.633	655.4
964.026	647.6
964.419	654.4
964.812	670.2
965.206	647.2
965.599	655.4
965.993	650
966.386	648
966.78	663.2
967.174	663
967.569	645.8
967.963	651.4
968.357	644.4
968.752	644.8
969.146	649.2
969.541	643
969.936	651.6
970.331	654.8
970.705	658.4
971.1	655
971.496	669.6
971.892	646.2
972.287	655.6
972.683	646.8
973.079	648.6
973.454	678.2
973.85	651
974.247	668.2
974.643	681.6
975.04	658.6
975.415	648
975.812	636.2
976.209	662.8
976.607	645.4
976.982	662.2
977.38	670.2
977.778	655
978.175	654.6
978.552	660.2
978.95	658.4
979.348	666.8
979.725	701
980.123	652.8
980.522	657.6
980.899	655.4
981.298	656.6
981.697	663.4
982.075	658.2
982.474	647.6
982.852	658.6
983.251	655.8
983.651	649.6
984.029	663.4
984.429	663
984.808	653.2
985.208	653.2
985.609	650.8
985.987	634.8
986.388	657.8
986.768	662.4
987.168	651.2
987.548	659.4
987.949	670
988.329	663.6
988.731	645.4
989.111	651
989.491	652.4
989.893	657.4
990.273	669.2
990.676	639.6
991.057	645.6
991.459	646.4
991.84	656.8
992.221	641.8
992.624	665.8
993.006	655.2
993.388	656.8
993.791	664.2
994.173	656.8
994.576	690.2
994.959	638.4
995.341	648.6
995.724	651.6
996.128	664.8
996.511	660.6
996.894	648.8
997.298	643.4
997.681	665.8
998.065	665.2
998.448	652.6
998.854	670.8
999.237	650
999.621	671.2
1000.01	667.2
1000.39	654.4
1000.8	648.6
1001.18	665.8
1001.56	675
1001.95	662.6
1002.33	657.8
1002.72	653.8
1003.13	651.6
1003.51	651.2
1003.9	652
1004.28	675
1004.67	654.8
1005.06	656.4
1005.44	685.4
1005.83	645.4
1006.21	656.4
1006.6	653.6
1006.99	675.8
1007.37	664.2
1007.76	659.2
1060.12	642.8
1060.51	645.8
1060.89	666
1061.28	652.4
1061.67	667.2
1062.06	655.8
1062.45	658.8
1062.83	646.8
1063.22	657.4
1063.61	703.8
1064	659.6
1064.39	663
1064.78	653.8
1065.14	669.2
1065.53	655.2
1065.92	651.8
1066.31	642.6
1066.7	665.6
1067.09	666.6
1067.46	660.8
1067.85	653
1068.24	646.6
1068.63	653
1069.02	639.6
1069.39	656
1069.78	642
1070.17	644.6
1070.57	638
1070.93	646.4
1071.33	643.2
1071.72	654.2
1072.11	645.4
1072.48	639.8
1072.87	655.4
1073.26	646.6
1073.64	644.6
1074.03	638.2
1074.4	649.2
1074.79	649.8
1075.19	654
1075.56	654.2
1075.95	659.4
1076.34	652.8
1076.72	654.6
1077.11	659
1077.48	677
1077.88	664.6
1078.25	649.6
1078.64	657.8
1079.02	658.8
1079.41	656.4
1079.78	658.6
1080.18	648
1080.55	730.2
1080.95	646.4
1081.32	654.6
1081.72	658.6
1082.09	655.4
1082.49	650.2
1082.86	651.4
1083.24	639.6
1083.63	645.6
1084.01	649
1084.38	663.6
1084.78	640.4
1085.16	650.6
1085.55	664.6
1085.93	671.4
1086.31	648.8
1086.7	683
1087.08	651.6
1087.46	648
1087.83	639.8
1088.23	672.2
1088.61	646.8
1088.99	662
1089.36	653.6
1089.76	648.4
1090.14	651.8
1090.52	645
1090.9	639.8
1091.27	651
1091.67	675.8
1092.05	658.8
1092.43	644.4
1092.81	660.8
1093.19	656.8
1093.57	650.4
1093.95	644.4
1094.35	666.6
1094.73	653.6
1095.11	648.4
1095.49	643.2
1095.87	651
1096.25	661.4
1096.63	656.4
1097.01	649
1097.39	659.4
1097.77	647.2
1098.15	660
1098.53	644.2
1098.91	649.4
1099.29	643
1099.68	675.4
1100.06	663
1100.44	655.6
1100.82	658
1101.18	655.2
1101.56	649
1101.95	644.8
1102.33	658
1102.71	654.2
1103.1	653
1103.48	644.2
1103.86	645
1104.22	660
1104.61	652.2
1104.99	657
1105.38	649.8
1105.76	647.2
1106.12	645.4
1106.51	697
1106.89	659
1107.26	649.2
1107.64	664.2
1108.03	642.2
1108.41	653.8
1108.78	647.6
1109.16	652
1109.55	664.8
1109.91	634.8
1110.3	637.6
1110.69	667
1111.05	644
1111.44	643.8
1111.8	645.8
1112.19	653.6
1112.58	654.2
1112.94	639.6
1113.33	648
1113.7	642.2
1114.09	643.8
1114.45	641.2
1114.84	650.6
1115.21	653
1115.6	643.2
1115.96	647
1116.35	657
1116.72	649.8
1117.11	659.2
1117.48	643.2
1117.85	643.2
1118.24	664.2
1118.6	654.4
1118.99	642.8
1119.36	657.4
1119.73	658.6
1120.12	654.8
1120.49	636.6
1120.86	662.6
1121.25	652.4
1121.62	649.2
1121.99	652.2
1122.38	673.8
1122.76	647
1123.13	650.2
1123.5	651
1123.89	661.8
1124.26	646
1124.63	650
1125	654.4
1125.4	648.2
1125.77	641
1126.14	643
1126.51	648.6
1126.88	655
1127.26	647.2
1127.63	636.8
1128.02	647
1128.4	646.8
1128.77	655.8
1129.14	652.2
1129.52	645.6
1129.89	654.4
1130.26	644.6
1130.64	637
1131.01	647
