#lambda/nm	C1
208.295	551.6
208.67	498.6
209.045	462.4
209.419	464
209.794	693
210.169	670.2
210.544	814.6
210.919	699.2
211.295	680.8
211.67	689.8
212.045	698.4
212.421	691.2
212.796	733
213.172	681.4
213.547	683
213.923	681.2
214.299	683.4
214.675	698.4
215.051	702
215.427	691.2
215.803	706.6
216.179	695.6
216.555	677.6
216.932	697
217.308	696.8
217.684	689.4
218.061	696.2
218.438	701.2
218.814	691.6
219.191	695.8
219.568	680
219.945	698.2
220.322	697
220.699	699.4
221.076	701.4
221.453	686.6
221.83	691
222.208	688
222.585	684.8
222.962	694.4
223.34	690.6
223.717	687.4
224.095	687.6
224.473	694.6
224.851	675.8
225.229	680.4
225.607	702.2
225.985	674.6
226.363	690.6
226.741	699
227.119	680
227.497	711.2
227.876	677.8
228.254	696.2
228.633	693.4
229.011	687.8
229.39	694.6
229.769	691.4
230.148	693.2
230.527	715.6
230.905	678
231.284	690
231.664	683
232.043	708
232.422	705.8
232.801	690.4
233.181	686.8
233.56	691.2
233.94	680.8
234.319	677
234.699	694
235.079	739
235.458	732.4
235.838	708.2
236.218	685.8
236.598	684.8
236.978	688.6
237.358	682.8
237.738	688
238.119	691.4
238.499	678.4
238.88	692.4
239.26	709.8
239.641	679.2
240.021	689
240.402	684.4
240.783	684
241.163	696
241.544	693
241.925	685.4
242.306	707.6
242.687	684.4
243.069	694.2
243.45	701.4
243.831	680.8
244.212	681.6
244.594	744
244.975	694.4
245.357	697.4
245.739	688.8
246.12	689.4
246.502	711
246.884	689.2
247.266	697.8
247.648	698
248.03	715.4
248.412	694.4
248.794	687
249.176	686.4
249.559	700
249.941	687.4
250.323	678.4
250.706	683.6
251.089	694.6
251.471	694.6
251.854	686.4
252.237	685.6
252.62	696.6
253.002	695.8
253.385	691.4
253.769	714.8
254.152	684.4
254.535	689.6
254.918	675.6
255.301	688.6
255.685	693
256.068	680.2
256.452	715.2
256.835	705.4
257.219	703.6
257.603	707
257.986	679.4
258.37	702.2
258.754	681
259.138	694.8
259.522	694.2
259.906	685
260.29	699
260.675	683.8
261.059	695.2
261.443	676.6
261.828	698
262.212	700
262.597	676.2
262.981	688.6
263.366	704.8
263.751	707
264.136	688.8
264.521	680.8
264.906	681
265.291	705.6
265.676	690
266.061	695.8
266.446	716.2
266.831	697.6
267.217	709.8
267.602	702
267.987	703.8
268.373	686
268.759	700.2
269.144	692.4
269.53	691
269.916	684.4
270.302	695.2
270.688	694.6
271.074	692.2
271.46	707.6
271.846	726.4
272.232	690.6
272.618	692.4
273.004	692.4
273.391	702.6
273.777	702.8
274.164	698.8
274.55	720.8
274.937	696.4
275.324	694.8
275.71	698
276.097	702.2
276.484	685.2
276.871	691.2
277.258	702.8
277.645	675.6
278.032	695
278.419	687.2
278.807	702.4
279.194	683.8
279.581	693.2
279.969	694
280.356	693
280.744	688.2
281.131	719.6
281.519	694.6
281.907	683.4
282.295	686.6
282.682	700.8
283.07	696.2
283.458	705
283.846	707.2
284.235	698.4
284.623	697
285.011	691.8
285.399	695.8
285.788	692
286.176	693.4
286.565	708.8
286.953	684.2
287.342	687.6
287.731	682.8
288.119	684.2
288.508	688.6
288.897	688.6
289.286	679
289.675	690
290.064	707
290.453	689.4
290.821	686.8
291.21	707.8
291.599	689
291.989	687.4
292.378	692.4
292.768	716.2
293.157	692.8
293.547	702.2
293.936	684.2
294.326	692.2
294.716	687.6
295.106	687.6
295.496	693.4
295.886	694.4
296.276	685.4
296.666	679
297.056	684
297.446	674.6
297.836	706.8
298.227	688.4
298.617	690.4
299.008	709.6
299.398	689.2
299.789	687.2
300.179	702.4
300.57	709.4
300.961	694.4
301.352	688.4
301.742	696.8
302.133	694.6
302.524	695.8
302.915	697.8
303.307	693.8
303.698	701.2
304.089	697.8
304.48	691
304.872	708
305.263	700.8
305.655	700.6
306.046	698
306.438	701.8
306.829	685.2
307.221	709.4
307.613	705.4
308.005	709.4
308.397	712.6
308.789	714.4
309.181	724
309.573	711.2
309.965	707.6
310.357	681.8
310.749	710.4
311.142	673.8
311.534	679.8
311.926	715.8
312.319	688.8
312.711	683.2
313.104	714.6
313.497	695.8
313.889	743.8
314.282	725.4
314.675	730.6
315.068	696.4
315.461	703.2
315.854	734.6
316.247	702.6
316.64	698.2
317.033	699.4
317.405	703.6
317.798	690
318.192	698.2
318.585	690.6
318.979	707.4
319.372	695.6
319.766	687.8
320.16	694.6
320.553	713
320.947	716.4
321.341	694.8
321.735	694.8
322.129	681.8
322.523	728.2
322.917	689.2
323.311	708.8
323.705	692.4
324.099	707.8
324.494	715.6
324.888	717.4
325.282	693.6
325.677	717.2
326.071	716.4
326.466	702.8
326.861	697.4
327.255	712.2
327.65	716.4
328.045	709.6
328.44	691.2
328.835	693.6
329.23	676.4
329.625	721
330.02	680.2
330.415	716.2
330.81	687.6
331.206	690.4
331.601	687.4
331.996	695.4
332.37	716.6
332.766	688.6
333.161	718.8
333.557	685.8
333.953	693
334.348	1123.8
334.744	704.4
335.14	691
335.536	694.6
335.932	710.6
336.328	698
336.724	711.2
337.12	700.2
337.516	699.4
337.913	691.2
338.309	711.2
338.705	700.6
339.102	711.8
339.498	682.6
339.895	711.2
340.291	674.2
340.688	705.2
341.085	697
341.481	698
341.878	690.4
342.275	718.4
342.672	687.2
343.069	693
343.466	679
343.842	704.8
344.239	687.2
344.636	691.6
345.033	681.6
345.431	684.2
345.828	694
346.225	681.4
346.623	731
347.02	687
347.418	704
347.816	707.8
348.213	684.2
348.611	694.2
349.009	691.4
349.407	703.4
349.805	680.2
350.203	667.8
350.601	711.2
350.999	687.2
351.397	759.6
351.795	684.8
352.193	696.2
352.57	705.6
352.969	707.6
353.367	686.4
353.766	686.4
354.164	687.4
354.563	697.6
354.961	687.4
355.36	694.6
355.759	692.2
356.158	684.6
356.557	685.6
356.956	685.6
357.355	680.8
357.754	690.6
358.153	699.6
358.552	712.4
358.951	692.2
359.35	704.2
359.75	676.2
360.149	682.8
360.527	674.2
360.926	677.8
361.326	684.8
361.726	684.8
362.125	677.6
362.525	701
362.925	686.6
363.325	687.8
363.724	687.6
364.124	683.8
364.524	681.8
364.924	685
365.324	709.8
365.725	668.4
366.125	687.6
366.525	690.4
366.904	669.4
367.304	670.8
367.705	712
368.105	697.4
368.506	690
368.906	696.2
369.307	682.2
369.708	695
370.108	681.6
370.509	695.6
370.91	675.4
371.311	689.2
371.712	695.8
372.113	681.2
372.514	674.8
372.894	675.8
373.295	685.2
373.696	693.8
374.097	696.6
374.499	724
374.9	687.4
375.301	680
375.703	697
376.105	671.6
376.506	693.2
376.908	693
377.309	685
377.711	697.2
378.113	677.2
378.493	683.2
378.895	678.8
379.297	694.4
379.699	677.6
380.102	690
380.504	691.2
380.906	677.8
381.308	709
381.71	685.4
382.113	702.6
382.515	673
382.918	691
383.299	682
383.701	708.4
384.104	680.2
384.507	672.8
384.909	685
385.312	670.4
385.715	673.8
386.118	679.4
386.521	674.8
386.924	698.6
387.327	675.4
387.709	670.4
388.112	668
388.515	679.6
388.918	674.8
389.322	691.8
389.725	686
390.129	702.8
390.532	690.6
390.936	683.2
391.339	672.6
391.743	684
392.125	681.4
392.529	690.4
392.933	696.8
393.337	683.8
393.74	676
394.144	680.4
394.548	673.8
394.953	686.4
395.357	697.2
395.761	678.8
396.144	685.2
396.548	677.8
396.952	676.6
397.357	678.6
397.761	670.4
398.166	675.4
398.57	684.8
398.975	672.2
399.379	679.8
399.763	734
400.168	676.2
400.572	684
400.977	679.2
401.382	696.2
401.787	704.2
402.192	702.6
402.597	698.6
403.002	666.6
403.386	705
403.791	701.2
404.197	674
404.602	694.2
405.007	679.2
405.413	686.6
405.818	691.4
406.224	685
406.608	684
407.014	676
407.42	706.4
407.825	682.2
408.231	703.4
408.637	690.8
409.043	697.2
409.449	678.4
409.834	678.8
410.24	685.2
410.646	699.4
411.052	692.6
411.458	688.2
411.865	698.2
412.271	698
412.677	687.4
413.062	690.8
413.469	675
413.875	719
414.282	698.4
414.689	686
415.095	699
415.502	685
415.888	692
416.294	672.6
416.701	737
417.108	678.6
417.515	696.2
417.923	689.8
418.33	714.2
418.715	700
419.123	678.4
419.53	676.2
419.937	690
420.345	706
420.752	689.2
421.16	703.4
421.546	687.2
421.953	699.8
422.361	684
422.769	695.4
423.177	682.2
423.585	708.8
423.992	711.8
424.379	710.6
424.787	703.6
425.195	716
425.603	690
426.011	705.6
426.419	704.8
426.806	688
427.214	690.6
427.623	703.2
428.031	702.4
428.44	693.4
428.848	699
429.235	712.6
429.644	697.8
430.053	685
430.461	712.2
430.87	724.2
431.279	705
431.666	692.2
432.075	688.6
432.484	702
432.893	694.6
433.302	717
433.711	757.2
434.099	706
434.508	703.2
434.918	690.8
435.327	711.6
435.737	709.2
436.125	707
436.534	716.2
436.944	718.6
437.353	709.6
437.763	737
438.173	708
438.561	734.2
438.971	693.4
439.381	718.8
439.791	725.6
440.201	710.8
440.589	722.6
440.999	734.4
441.409	731.8
441.819	718.4
442.23	742.8
442.619	737.4
443.029	732.4
443.439	741.8
443.85	746.4
444.26	756
444.649	735.6
445.06	730.2
445.471	721.8
445.881	740.8
446.292	751.4
446.682	764
447.092	728.4
447.503	793
447.914	735
448.325	744.8
448.715	750.6
449.126	739.8
449.537	729
449.948	743.2
450.338	732.8
450.75	748.8
451.161	750.8
451.572	749
451.984	730.2
452.374	726.4
452.786	747.8
453.197	743.6
453.609	752.6
453.999	727.4
454.411	731
454.823	762.2
455.235	752
455.647	746.4
456.037	743.8
456.449	742.2
456.862	750.6
457.274	756.8
457.665	739.2
458.077	753.4
458.489	788.4
458.902	748.2
459.293	744.6
459.705	748.4
460.118	738.4
460.53	753
460.921	749.8
461.334	751.6
461.747	745.8
462.16	752
462.551	763.8
462.964	745
463.377	732.6
463.79	747.6
464.182	759.2
464.595	739.8
465.008	752.4
465.421	743.6
465.813	747
466.226	756.2
466.64	750.8
467.053	798.8
467.445	749.6
467.859	765
468.272	751.8
468.686	762.8
469.078	743
469.492	743.2
469.906	755
470.298	759.2
470.712	748.6
471.126	819
471.54	741.2
471.933	734.8
472.347	744.2
472.761	735.2
473.175	724.4
473.568	741.6
473.982	728.6
474.397	749.4
474.79	735.8
475.204	744.2
475.619	748.6
476.033	756.4
476.426	749.4
476.841	729.2
477.256	777.6
477.649	736.8
478.064	739.2
478.479	725
478.872	745.2
479.287	716.8
479.702	735.4
480.118	745.4
480.511	735.2
480.927	733.6
481.342	737.2
481.736	740.2
482.151	731.8
482.566	748.8
482.96	740.4
483.376	753.2
483.792	737
484.186	741.4
484.602	730.6
485.017	737.6
485.412	740.6
485.827	738.2
486.243	742.6
486.638	757.4
487.054	737.2
487.47	751.2
487.865	727
488.281	731.2
488.697	728.6
489.092	726.2
489.508	721.2
489.925	731.4
490.32	721.6
490.736	740.6
491.153	733.8
491.548	728
491.964	746.6
492.381	718.6
492.776	726.8
493.193	731.8
493.61	729.4
494.006	727.8
494.422	737.6
494.84	719.2
495.235	734
495.652	727.2
496.069	713.4
496.465	714
496.883	725
497.3	759.6
497.696	719.4
498.113	734.4
498.509	715.6
498.927	709.6
499.344	710.6
499.741	710.4
500.158	730.8
500.576	729.8
500.973	714.4
501.39	716.2
501.787	704.6
502.205	720
502.623	720
503.02	701.8
503.438	699
503.856	706.6
504.253	710.4
504.671	716.2
505.068	708.8
505.486	705.6
505.905	735.6
506.302	714.2
506.72	728
507.118	700.2
507.536	711.8
507.955	711.2
508.352	708.8
508.771	722.8
509.169	717.4
509.587	708.6
510.006	709.2
510.404	697.6
510.823	708.4
511.221	708.6
511.64	716.4
512.038	727.2
512.457	709
512.877	716.4
513.275	710.6
513.694	712
514.092	695.8
514.512	711.8
514.91	709.8
515.33	711.8
515.749	707.6
516.148	718.6
516.568	709
516.966	709.6
517.386	701.8
517.785	707
518.205	701.6
518.603	699.6
519.024	695.2
519.444	716.2
519.843	712.4
520.263	715.8
520.662	717.6
521.082	701.6
521.481	694
521.902	696
522.301	700.8
522.722	705
523.121	699.6
523.542	696.2
523.963	697.8
524.362	707.4
524.783	701.6
525.183	702
525.604	701.2
526.003	688
526.425	689
526.824	699.4
527.246	707
527.646	709.4
528.067	706.4
528.467	700.4
528.888	709.2
529.289	687.2
529.71	689.8
530.11	697.8
530.532	690.4
530.932	691.2
531.354	684.2
531.755	738
532.176	698.6
532.577	699.8
532.999	707.4
533.4	686.2
533.822	717.6
534.223	696.8
534.645	681.6
535.046	688.8
535.468	694.8
535.869	703.6
536.292	680.4
536.693	731.6
537.115	693.6
537.516	688
537.939	683
538.34	706.6
538.742	704.2
539.165	688.2
539.566	694.8
539.989	690.4
540.391	682
540.814	690.8
541.216	691
541.639	697.2
542.041	704.2
542.464	694.6
542.866	684.8
543.268	675.2
543.691	695.2
544.093	696.4
544.517	707.8
544.919	686.6
545.343	708.6
545.745	680.4
546.147	691.4
546.571	683.4
546.974	668.8
547.398	689
547.8	705.6
548.224	683
548.627	689
549.03	690
549.454	677.6
549.857	668.8
550.281	681.8
550.684	682.2
551.087	694
551.512	684.4
551.915	694.6
552.34	683.4
552.743	674.8
553.146	688.2
553.571	679
553.975	702.4
554.399	676.4
554.803	735.2
555.207	675.6
555.632	670.4
556.036	687.6
556.461	672.8
556.865	684
557.268	682.2
557.694	688.6
558.098	685.4
558.502	687
558.927	676.6
559.332	685
559.736	680.8
560.162	690.2
560.566	673.8
560.992	689.2
561.396	679.4
561.801	679.4
562.227	683.2
562.631	680.6
563.036	683.8
563.462	691.4
563.867	684.4
564.272	661.4
564.698	685.6
565.103	674.8
565.508	699.6
565.935	678.4
566.34	689.6
566.745	688.4
567.172	675
567.577	697.4
567.982	692.2
568.409	682.2
568.815	681
569.22	683.4
569.626	681.6
570.053	671
570.459	683.6
570.865	691.6
571.292	684.4
571.698	683.6
572.104	663
572.531	666.8
572.937	685.4
573.343	683.8
573.75	669.8
574.177	673.6
574.583	683.6
574.99	677.8
575.396	693.4
575.824	680.4
576.231	683.8
576.637	673
577.065	705.2
577.472	671.4
577.879	670.8
578.286	694.2
578.714	665.8
579.121	673.6
579.528	686.6
579.935	677.2
580.364	667.4
580.771	660.8
581.178	670.2
581.585	676.4
582.014	677.2
582.421	670
582.829	671.6
583.236	683.6
583.644	674.2
584.073	668.8
584.481	672.2
584.889	671.8
585.296	676.4
585.726	673
586.134	661.4
586.542	666.6
586.95	691.8
587.358	664.8
587.787	678.8
588.196	664
588.604	674.6
589.012	676.2
589.421	666.4
589.851	678
590.259	679.4
590.668	675.4
591.076	716.2
591.485	665.6
591.894	668.8
592.324	688.4
592.733	689.6
593.142	665.8
593.551	669.8
593.96	673.8
594.369	667.6
594.8	658.4
595.209	674.6
595.618	655.4
596.028	662.8
596.437	651.4
596.847	672.4
597.256	673.8
597.687	671.8
598.097	656.4
598.507	666.6
598.917	669
599.327	676
599.736	678.2
600.146	682.6
600.556	670
600.988	691
601.398	667.6
601.808	683.8
602.219	658.4
602.629	676
603.039	673.6
603.45	701.8
603.86	671.8
604.271	686
604.703	675.6
605.114	675.6
605.525	671.8
605.935	664.8
606.346	698.2
606.757	676.6
607.168	678.4
607.579	663
607.99	681.4
608.402	663.2
608.813	678.6
609.224	664.4
609.636	652.8
610.047	657.8
610.48	668.8
610.892	674.8
611.303	676.2
611.715	664.6
612.127	666.2
612.539	669.6
612.95	666.4
613.362	664
613.774	653.4
614.186	657.2
614.599	675.2
615.011	679.4
615.423	672
615.835	667.8
616.248	655.6
616.66	678.4
617.073	651.6
617.485	671.2
617.898	686.6
618.311	677.4
618.723	670.8
619.136	703
619.549	687.6
619.962	699.4
620.375	671
620.788	669
621.201	660.4
621.614	680.8
622.028	668.8
622.441	673.6
622.854	685.6
623.268	662.4
623.681	681
624.095	669
624.509	688.2
624.922	683.6
625.336	658.6
625.728	676.8
626.142	678.6
626.556	694.4
626.97	682.4
627.384	662.4
627.799	679.8
628.213	689.8
628.627	667
629.041	674.8
629.456	667.6
629.87	667.4
630.285	677.4
630.699	687.4
631.093	665.6
631.507	673.6
631.922	681.6
632.337	689
632.752	656.2
633.167	669.6
633.582	663.4
633.997	668.2
634.412	661.6
634.806	674.8
635.221	667.6
635.637	668
636.052	661
636.468	667
636.883	690.2
637.299	666.8
637.715	656.8
638.109	665.6
638.525	651.6
638.941	676.6
639.357	663
639.773	673.6
640.189	658.4
640.584	670.2
641	668.8
641.416	656.8
641.832	671.4
642.249	663.8
642.665	658.2
643.06	674.8
643.477	678.6
643.894	648.4
644.31	668
644.727	669
645.123	668.8
645.54	662.6
645.957	669.8
646.374	686.8
646.77	678
647.187	701.4
647.604	671.8
648.021	648.2
648.439	664.6
648.835	674
649.252	666.2
649.67	668.2
650.088	667.6
650.484	677.6
650.902	668.6
651.32	673.2
651.738	660.2
652.134	673.4
652.552	688.4
652.971	686.4
653.389	667
653.786	684.2
654.204	694
654.622	658.8
655.019	674.4
655.438	670.8
655.857	670.6
656.275	677
656.673	656
657.091	748.2
657.51	657.8
657.908	673
658.327	691.4
658.746	651.2
659.144	671.4
659.563	683
659.982	669.6
660.38	646
660.8	665.2
661.219	683
661.617	669.4
662.037	670.8
662.457	691.6
662.855	655
663.275	699
663.695	671.6
664.094	667
664.514	674.2
664.934	661.2
665.333	678.2
665.753	665.6
666.152	664.4
666.572	665
666.993	686
667.392	674.8
667.812	663
668.212	658.4
668.632	682.8
669.053	664.8
669.453	674
669.874	671.2
670.273	671.8
670.694	664.2
671.116	684.8
671.515	666.8
671.937	669
672.337	661.4
672.758	666.4
673.158	671.8
673.58	657.8
673.98	671.4
674.402	684
674.824	667.8
675.224	662.2
675.646	657.4
676.047	665.8
676.469	663.6
676.869	671.8
677.292	674.6
677.693	657.4
678.115	660.6
678.516	665.8
678.939	669.8
679.34	662.6
679.762	681.2
680.164	677
680.586	661.8
680.988	667
681.411	692.4
681.812	671.6
682.236	652.4
682.637	669
683.061	665.2
683.462	673
683.864	665.2
684.288	667.2
684.69	665
685.114	676
685.516	677
685.94	653.2
686.342	679.4
686.766	666
687.168	666.4
687.571	683.2
687.995	668.4
688.398	649.4
688.822	661
689.225	685.2
689.628	688.6
690.052	671.6
690.456	677.6
690.88	673
691.284	666
691.687	678
692.112	659
692.515	655.8
692.919	674.8
693.344	676.4
693.747	668.6
694.173	660.4
694.577	685.2
694.98	670
695.406	663.2
695.81	663.8
696.214	667.2
696.64	676
697.044	664.2
697.448	679.2
697.874	665.6
698.279	670
698.684	646.2
699.11	649.8
699.514	652
699.919	651.6
700.324	648.8
700.75	665.2
701.156	666
701.561	683
701.987	670.8
702.393	677.6
702.798	677.8
703.203	663.2
703.63	660.6
704.036	659
704.442	665
704.847	656
705.274	662.4
705.68	667.4
706.086	675.2
706.492	657
706.92	659
707.326	670.4
707.732	658.4
708.139	657.6
708.545	655.2
708.973	659
709.38	650.8
709.786	649.6
710.193	678.2
710.6	659.8
711.028	657
711.435	655.2
711.842	662
712.249	661.6
712.656	666.4
713.064	674.6
713.492	649.8
713.9	654.8
714.307	661.2
714.715	658.4
715.123	674.2
715.53	675.6
715.938	671
716.367	671.8
716.775	657
717.184	654
717.592	658
718	674.2
718.408	706.6
718.816	713.2
719.225	664.6
719.633	674
720.042	665.4
720.472	661.2
720.881	678.6
721.29	674
721.699	664
722.108	676.6
722.517	665.6
722.926	666.2
723.335	680.8
723.744	666.2
724.154	664.6
724.563	669.2
724.973	668
725.382	665.6
725.792	659.2
726.202	654.8
726.612	687.2
727.022	668.8
727.432	657
779.813	659.6
780.223	705
780.634	661.6
781.044	661
781.454	660.8
781.865	671
782.276	656.4
782.686	673.4
783.097	657.2
783.508	669.4
783.919	657.8
784.33	679.8
784.741	685.4
785.152	652.8
785.563	643
785.974	651
786.386	666
786.776	666
787.188	663.8
787.599	659.4
788.011	678.6
788.423	668.4
788.835	656.4
789.247	646.4
789.659	656.4
790.071	666.2
790.483	711.6
790.874	669.4
791.286	672.6
791.699	659.2
792.111	659.8
792.524	670.6
792.937	660.6
793.349	656.2
793.741	653.6
794.154	653.6
794.567	676.2
794.98	669.8
795.393	652.2
795.785	682.6
796.198	654.6
796.612	657.4
797.026	659.6
797.439	645.8
797.831	658.8
798.245	644.6
798.659	657.2
799.073	657.8
799.487	653
799.88	668.8
800.294	651.2
800.708	663.4
801.123	660
801.516	686
801.93	661.2
802.345	641
802.76	668.2
803.153	676.6
803.568	686.6
803.983	675.6
804.377	666.6
804.792	646.6
805.207	655.2
805.601	661.6
806.016	696.8
806.432	658.4
806.826	694.2
807.242	673.8
807.658	660.2
808.052	657.2
808.468	662
808.884	658.6
809.279	664.6
809.695	681.8
810.111	681.4
810.506	665.4
810.922	682.8
811.339	650.6
811.734	674.2
812.151	652.8
812.546	648.4
812.963	659.4
813.38	670.2
813.776	660.8
814.193	687.4
814.589	653.2
815.006	650.4
815.402	649.4
815.82	649
816.237	657.2
816.633	666
817.051	661.6
817.448	661.2
817.866	652
818.262	687.8
818.68	654.6
819.077	656.2
819.495	658.4
819.892	707
820.311	651.2
820.708	652.6
821.127	658.4
821.524	667
821.943	664.4
822.34	679.6
822.759	670.2
823.157	668.8
823.576	673
823.974	678
824.393	784.4
824.791	659
825.189	650.8
825.609	657.2
826.007	656.4
826.427	648.4
826.826	646.4
827.246	666.8
827.644	640.2
828.043	672
828.463	653.2
828.862	675.8
829.261	657.6
829.682	644.2
830.081	665.4
830.502	650
830.901	665.2
831.301	662
831.722	653.6
832.121	663.8
832.521	652.8
832.943	661
833.342	661.6
833.742	646.2
834.164	657.6
834.564	652.2
834.965	662
835.386	655.6
835.787	652.8
836.188	665.6
836.588	662.2
837.01	661.2
837.411	657
837.812	664.6
838.213	672.4
838.636	665.6
839.037	738.4
839.438	668.2
839.84	664
840.263	669.4
840.664	664.2
841.066	660.6
841.468	666.2
841.891	660
842.293	668.4
842.695	666.8
843.098	671.6
843.5	658
843.902	659.8
844.326	658
844.729	664.2
845.131	676
845.534	662.6
845.937	672.8
846.34	686.8
846.764	663.2
847.167	666
847.571	652
847.974	662.4
848.377	661.2
848.781	714
849.184	681.2
849.588	652.2
849.992	653
850.396	662.2
850.821	681.2
851.225	669
851.63	655.8
852.034	673
852.438	654.8
852.843	699.8
853.247	650.2
853.652	655
854.057	681.6
854.462	667.6
854.867	656.8
855.272	697.6
855.677	675.4
856.082	650.8
856.487	652
856.893	664.2
857.298	664.4
857.704	656.4
858.11	666.6
858.516	672.6
858.922	662.6
859.328	673.2
859.734	655.8
860.14	663.4
860.525	651.8
860.931	647.6
861.338	651.6
861.745	669.6
862.151	661.4
862.558	656.6
862.965	644
863.372	648.6
863.779	651.6
864.186	675.8
864.572	656.4
864.98	679.8
865.387	688.6
865.795	657.4
866.203	665.4
866.61	650
867.018	668
867.405	676
867.813	653.8
868.221	652.6
868.63	662.6
869.038	667.8
869.425	698
869.834	661
870.243	649.4
870.652	653.4
871.039	654.8
871.448	649
871.857	670.2
872.266	665.6
872.654	665
873.064	661
873.473	667.2
873.883	655.8
874.271	655.4
874.681	674.2
875.091	649.2
875.48	671.6
875.89	673.6
876.3	658
876.689	645.2
877.1	652.4
877.51	653.2
877.9	685
878.31	650.4
878.721	691.6
879.111	663
879.522	656
879.933	639.4
880.323	650.2
880.734	648
881.125	657
881.536	659.8
881.948	651.6
882.338	664.6
882.75	672.8
883.141	658.6
883.553	668.8
883.944	691.2
884.356	669.2
884.769	649
885.16	664
885.573	665.4
885.964	648.4
886.377	659.2
886.768	641.6
887.181	656.6
887.573	651.8
887.987	662.8
888.378	660.8
888.792	666.4
889.184	715.6
889.598	660.2
889.99	656.4
890.383	656.4
890.797	644.8
891.19	667.2
891.604	651.6
891.997	649.6
892.411	646.2
892.805	658.8
893.198	655.6
893.613	651
894.006	652.4
894.421	654.4
894.815	654
895.209	657.4
895.624	713
896.018	671.8
896.412	652.6
896.828	652.6
897.222	657.6
897.617	646.4
898.033	673.8
898.427	661.6
898.822	660.4
899.239	645.4
899.634	647
900.029	674.4
900.424	646.6
900.841	648.8
901.236	675.2
901.632	672.2
902.027	725.6
902.445	669.6
902.841	658
903.237	658.8
903.633	672.4
904.05	661.8
904.447	671.4
904.843	670.2
905.24	655.4
905.636	644.8
906.033	652.4
906.451	671.6
906.848	654.6
907.246	652.6
907.643	661.2
908.04	666.6
908.438	679.8
908.835	657.2
909.254	658
909.652	662
910.05	661.8
910.448	651
910.846	650.8
911.244	646.4
911.643	661.6
912.041	663
912.44	670.4
912.839	641.2
913.237	646
913.636	650.4
914.035	661.2
914.434	652.6
914.834	671.2
915.233	661.8
915.633	655.2
916.032	653
916.432	652.6
916.832	681.8
917.232	651.6
917.632	651
918.032	660.2
918.432	657.8
918.833	661.8
919.233	655.8
919.634	651.8
920.035	667.6
920.436	651
920.837	659.2
921.238	654.2
921.639	657.4
922.019	661.6
922.42	665.8
922.822	670.2
923.224	661.6
923.625	662.4
924.027	659
924.429	684.6
924.81	661.6
925.212	667.6
925.615	657.4
926.017	657.2
926.42	666.8
926.801	655.6
927.204	658.4
927.607	666.8
928.01	667.2
928.413	659
928.795	635.4
929.199	647.2
929.602	648.6
930.006	644.4
930.388	645.6
930.792	661
931.196	652.8
931.579	692.6
931.983	650.4
932.388	709.8
932.771	652.2
933.176	641.2
933.58	648.4
933.964	661.6
934.369	648.2
934.774	658.8
935.158	650.2
935.563	657.2
935.947	650.2
936.353	662
936.759	645.6
937.143	653.6
937.549	663.2
937.934	676.2
938.34	677
938.746	651.8
939.131	656
939.538	656.4
939.923	655.6
940.33	648.4
940.716	666.4
941.123	658.6
941.508	665
941.916	678.8
942.302	668.8
942.709	649.6
943.096	643
943.503	668
943.89	656.2
944.298	658.6
944.685	695.2
945.072	651
945.48	674
945.867	640.6
946.276	654
946.663	678.2
947.051	670.8
947.46	666.6
947.848	671.8
948.257	662
948.645	660.6
949.033	646.2
949.443	653.6
949.831	702
950.22	650.4
950.63	674
951.018	695
951.407	651.6
951.796	647.6
952.207	661.4
952.596	669
952.985	647.2
953.375	708.6
953.786	659.4
954.176	640
954.566	662.8
954.956	640.6
955.367	653
955.758	686
956.148	650
956.539	666.4
956.929	652.4
957.341	648.2
957.732	654
958.123	657
958.515	644.6
958.906	665.8
959.297	649.6
959.689	657.2
960.102	653.4
960.494	657.8
960.886	652.4
961.278	648
961.67	685
962.062	690.2
962.455	651.8
962.847	639.2
963.24	642.4
963.633	650
964.026	643
964.419	654.8
964.812	661
965.206	646.4
965.599	671
965.993	661.2
966.386	645.8
966.78	667.6
967.174	670.4
967.569	652.2
967.963	649.2
968.357	651.8
968.752	639
969.146	650.4
969.541	650
969.936	652.8
970.331	655
970.705	655.8
971.1	657
971.496	662.2
971.892	652
972.287	656.6
972.683	656
973.079	650.8
973.454	668.8
973.85	651
974.247	665.8
974.643	689.8
975.04	661.2
975.415	652.4
975.812	649.8
976.209	666.8
976.607	650
976.982	668.4
977.38	670.8
977.778	660.2
978.175	651.4
978.552	656.8
978.95	657.2
979.348	673.8
979.725	713.8
980.123	653.8
980.522	661.4
980.899	650.6
981.298	651
981.697	650.8
982.075	658
982.474	643.6
982.852	660.6
983.251	651
983.651	655.4
984.029	661.2
984.429	653.8
984.808	644.4
985.208	649.4
985.609	647
985.987	642.6
986.388	649.4
986.768	665
987.168	648.4
987.548	665
987.949	656.2
988.329	661.2
988.731	642.6
989.111	654
989.491	654.6
989.893	656.8
990.273	668.6
990.676	653
991.057	645.8
991.459	650.6
991.84	650.4
992.221	646.4
992.624	669.2
993.006	659
993.388	653
993.791	658.2
994.173	660.4
994.576	697.6
994.959	646.8
995.341	647.8
995.724	644.6
996.128	652.2
996.511	657.8
996.894	649.6
997.298	646.6
997.681	654.4
998.065	653
998.448	650.6
998.854	651.2
999.237	645.8
999.621	662.6
1000.01	679.6
1000.39	655.4
1000.8	646.6
1001.18	665.8
1001.56	659.6
1001.95	661.4
1002.33	663
1002.72	660.8
1003.13	651
1003.51	652.4
1003.9	647.6
1004.28	678.2
1004.67	654
1005.06	654.6
1005.44	689.8
1005.83	644.6
1006.21	652.4
1006.6	649.8
1006.99	670.2
1007.37	661
1007.76	664.4
1060.12	651
1060.51	637.6
1060.89	660
1061.28	661.2
1061.67	665.2
1062.06	660.2
1062.45	647.4
1062.83	647
1063.22	664.2
1063.61	700.4
1064	660.2
1064.39	646.8
1064.78	641.4
1065.14	660.6
1065.53	653
1065.92	653
1066.31	650.6
1066.7	656.6
1067.09	672.4
1067.46	661.8
1067.85	648
1068.24	647.4
1068.63	650.8
1069.02	662
1069.39	648.8
1069.78	634.4
1070.17	649.4
1070.57	651.4
1070.93	651.2
1071.33	641.2
1071.72	652.6
1072.11	647.4
1072.48	648.6
1072.87	655
1073.26	661.4
1073.64	648.6
1074.03	646.8
1074.4	647.8
1074.79	652.6
1075.19	657.8
1075.56	657.8
1075.95	659.6
1076.34	650
1076.72	656
1077.11	660.4
1077.48	670.4
1077.88	650.8
1078.25	654.2
1078.64	664.8
1079.02	656.6
1079.41	664.8
1079.78	648.4
1080.18	646.6
1080.55	728.2
1080.95	646.4
1081.32	644.8
1081.72	668.4
1082.09	650.2
1082.49	639.8
1082.86	649
1083.24	636.4
1083.63	640
1084.01	649.6
1084.38	654.4
1084.78	648
1085.16	656
1085.55	662.2
1085.93	675.8
1086.31	631.2
1086.7	696.2
1087.08	653.4
1087.46	652.2
1087.83	646.6
1088.23	661.8
1088.61	647.6
1088.99	658.6
1089.36	652.2
1089.76	651
1090.14	653.8
1090.52	655.2
1090.9	638.8
1091.27	650.6
1091.67	681.2
1092.05	662.6
1092.43	649.6
1092.81	658.8
1093.19	661.6
1093.57	654.2
1093.95	655
1094.35	663
1094.73	660.2
1095.11	648.6
1095.49	652.4
1095.87	651.4
1096.25	656.6
1096.63	654.2
1097.01	654
1097.39	661.6
1097.77	651.6
1098.15	650.8
1098.53	647.4
1098.91	653.2
1099.29	652.2
1099.68	674.8
1100.06	666.2
1100.44	649.4
1100.82	655.6
1101.18	669.2
1101.56	650.2
1101.95	647.2
1102.33	646.2
1102.71	650
1103.1	639.2
1103.48	639.6
1103.86	638.2
1104.22	654.2
1104.61	651
1104.99	646.4
1105.38	652.2
1105.76	653.4
1106.12	648.2
1106.51	690.8
1106.89	660.4
1107.26	651
1107.64	655
1108.03	651.4
1108.41	651.8
1108.78	657.6
1109.16	650.4
1109.55	661
1109.91	646
1110.3	637.6
1110.69	674.4
1111.05	647.2
1111.44	647.4
1111.8	661.4
1112.19	653
1112.58	658.6
1112.94	649.2
1113.33	651.6
1113.7	645.6
1114.09	651
1114.45	640.2
1114.84	653.6
1115.21	659
1115.6	648.4
1115.96	653.4
1116.35	657
1116.72	651.4
1117.11	667.4
1117.48	649.8
1117.85	647.8
1118.24	673.4
1118.6	654
1118.99	646.2
1119.36	652.8
1119.73	657.6
1120.12	656.8
1120.49	636.2
1120.86	655.8
1121.25	650.4
1121.62	643.4
1121.99	643
1122.38	664.4
1122.76	648.4
1123.13	657.6
1123.5	666.4
1123.89	658.4
1124.26	645.2
1124.63	648.2
1125	654.8
1125.4	648.2
1125.77	652.6
1126.14	631.4
1126.51	656.8
1126.88	644.4
1127.26	643.2
1127.63	631.2
1128.02	651.4
1128.4	648.2
1128.77	648
1129.14	642.8
1129.52	647.2
1129.89	647.2
1130.26	649.8
1130.64	637
1131.01	648.6
