#lambda/nm	C1
208.295	554.2
208.67	500.8
209.045	462.8
209.419	468
209.794	690.2
210.169	672.2
210.544	809.6
210.919	700.8
211.295	674.4
211.67	687.8
212.045	686.4
212.421	681.4
212.796	729.2
213.172	689
213.547	671.8
213.923	684.2
214.299	674.4
214.675	693.2
215.051	689.4
215.427	698.2
215.803	707.6
216.179	690.4
216.555	680.8
216.932	691
217.308	685
217.684	684.4
218.061	687.8
218.438	687.6
218.814	688.4
219.191	695.2
219.568	674.4
219.945	691
220.322	691.4
220.699	690
221.076	700.6
221.453	696.6
221.83	684.4
222.208	677.8
222.585	692.6
222.962	697
223.34	687.8
223.717	693.2
224.095	689
224.473	687.4
224.851	677.2
225.229	683.4
225.607	701.2
225.985	677.2
226.363	686.8
226.741	693
227.119	688.6
227.497	698.6
227.876	669.8
228.254	689.6
228.633	691.2
229.011	682.6
229.39	689.8
229.769	689.8
230.148	694.2
230.527	708.8
230.905	696.8
231.284	683
231.664	681.8
232.043	700.6
232.422	690.2
232.801	683.8
233.181	693
233.56	681.8
233.94	692.6
234.319	671.4
234.699	688.8
235.079	737.4
235.458	741.4
235.838	709
236.218	685
236.598	673.8
236.978	677.2
237.358	680.2
237.738	682.6
238.119	692.4
238.499	672.4
238.88	697.2
239.26	700.2
239.641	672.6
240.021	688.2
240.402	692
240.783	676.6
241.163	685.4
241.544	687.2
241.925	693.8
242.306	707.8
242.687	679.2
243.069	687.4
243.45	691.4
243.831	683.4
244.212	694.6
244.594	733.2
244.975	700.2
245.357	697.6
245.739	686.4
246.12	692.8
246.502	711
246.884	687.6
247.266	687.8
247.648	692.4
248.03	716.6
248.412	686
248.794	695.4
249.176	682.8
249.559	693.6
249.941	685
250.323	684.8
250.706	671.8
251.089	694.4
251.471	698
251.854	697.2
252.237	687.2
252.62	695.6
253.002	691
253.385	684
253.769	706.6
254.152	689.8
254.535	704.8
254.918	672.8
255.301	675.8
255.685	687.8
256.068	676.4
256.452	714.4
256.835	695.4
257.219	698.6
257.603	695.2
257.986	680.6
258.37	690.2
258.754	678.6
259.138	700.4
259.522	688.2
259.906	685.8
260.29	693.6
260.675	681.6
261.059	697.6
261.443	677.6
261.828	693.6
262.212	696.4
262.597	679.8
262.981	681.4
263.366	687.4
263.751	687.8
264.136	688.6
264.521	673
264.906	680.6
265.291	691.2
265.676	678.4
266.061	689.4
266.446	710.2
266.831	687.2
267.217	714.4
267.602	688.2
267.987	690.2
268.373	679.4
268.759	699.4
269.144	699.4
269.53	677.6
269.916	681.8
270.302	685.6
270.688	696.2
271.074	686.8
271.46	705.4
271.846	717.8
272.232	691.4
272.618	680.4
273.004	682
273.391	695.6
273.777	696.4
274.164	692.6
274.55	703.2
274.937	683.4
275.324	682.8
275.71	694.4
276.097	691.6
276.484	674.4
276.871	689.6
277.258	694.2
277.645	677.6
278.032	692.2
278.419	688.2
278.807	694.8
279.194	682
279.581	686.6
279.969	698.4
280.356	684.4
280.744	691.2
281.131	715.6
281.519	699.4
281.907	683.6
282.295	692
282.682	700
283.07	694.2
283.458	700.2
283.846	703.4
284.235	708.6
284.623	700.6
285.011	680.8
285.399	692.6
285.788	691.4
286.176	681.2
286.565	702.4
286.953	680.2
287.342	685.6
287.731	684.2
288.119	671.2
288.508	679.8
288.897	685.2
289.286	670.4
289.675	690.6
290.064	705.6
290.453	685.8
290.821	684.4
291.21	711.2
291.599	684.6
291.989	685.4
292.378	700
292.768	712.2
293.157	692
293.547	693.4
293.936	685.8
294.326	687
294.716	696.6
295.106	686.6
295.496	696.2
295.886	703.2
296.276	690.8
296.666	683.8
297.056	682.6
297.446	677.4
297.836	710.6
298.227	690.4
298.617	688
299.008	700.6
299.398	684.6
299.789	683.2
300.179	693.2
300.57	708.4
300.961	685.4
301.352	676.4
301.742	695
302.133	684.8
302.524	683.8
302.915	685.2
303.307	676.2
303.698	700.4
304.089	690.4
304.48	688.6
304.872	681.8
305.263	681
305.655	678
306.046	685.4
306.438	700.2
306.829	677.2
307.221	704.4
307.613	689
308.005	692.8
308.397	700.8
308.789	712.6
309.181	721
309.573	713.8
309.965	707.2
310.357	688.4
310.749	697.8
311.142	680.8
311.534	686.4
311.926	704
312.319	690.6
312.711	687.4
313.104	706.6
313.497	683.4
313.889	728.2
314.282	706
314.675	715.2
315.068	687.8
315.461	699
315.854	722.6
316.247	702
316.64	695.4
317.033	697.8
317.405	706.2
317.798	688.2
318.192	696
318.585	682
318.979	701.2
319.372	685.6
319.766	682
320.16	702
320.553	706.6
320.947	713.6
321.341	687.8
321.735	686.4
322.129	676
322.523	721.6
322.917	686.8
323.311	706
323.705	695.8
324.099	699
324.494	705.2
324.888	698.4
325.282	684.8
325.677	706
326.071	708.4
326.466	702.2
326.861	692.6
327.255	703.2
327.65	711.8
328.045	704
328.44	694.2
328.835	701
329.23	684.2
329.625	723.8
330.02	687.8
330.415	719.4
330.81	691.4
331.206	698
331.601	673.8
331.996	704
332.37	717.6
332.766	673.4
333.161	711.8
333.557	679
333.953	693.8
334.348	960
334.744	683
335.14	683
335.536	682.8
335.932	697.8
336.328	701.4
336.724	707.2
337.12	692
337.516	688.6
337.913	691.4
338.309	703.4
338.705	696
339.102	703
339.498	678.8
339.895	716
340.291	687.6
340.688	703.2
341.085	690.6
341.481	684
341.878	692.6
342.275	712.2
342.672	678.6
343.069	696.2
343.466	683
343.842	701.6
344.239	686
344.636	696
345.033	682
345.431	679.6
345.828	686.6
346.225	673.4
346.623	736
347.02	694.8
347.418	697.6
347.816	710.4
348.213	686.6
348.611	704.2
349.009	685
349.407	703.8
349.805	671.4
350.203	668.6
350.601	701
350.999	694.2
351.397	732
351.795	685.2
352.193	701.2
352.57	701
352.969	707.6
353.367	680.4
353.766	687.2
354.164	688.6
354.563	707.2
354.961	691.8
355.36	686.4
355.759	680.8
356.158	684.2
356.557	677
356.956	674.4
357.355	680
357.754	689.2
358.153	685.6
358.552	727.2
358.951	690.6
359.35	700.8
359.75	686.4
360.149	678.4
360.527	667
360.926	669.6
361.326	680.6
361.726	690.6
362.125	673.8
362.525	692.8
362.925	675.8
363.325	684.4
363.724	683.2
364.124	671.8
364.524	670.4
364.924	682
365.324	701.4
365.725	671.6
366.125	687.6
366.525	686
366.904	665.2
367.304	661.6
367.705	703
368.105	694.6
368.506	690.2
368.906	678.4
369.307	684.2
369.708	693.2
370.108	670.4
370.509	699.6
370.91	676.8
371.311	688.8
371.712	693.2
372.113	677
372.514	671.4
372.894	676.6
373.295	677.4
373.696	694
374.097	696.6
374.499	721.4
374.9	684.2
375.301	686.4
375.703	681
376.105	673
376.506	688.6
376.908	687.2
377.309	686.4
377.711	685.4
378.113	675.4
378.493	683.2
378.895	683.8
379.297	691.4
379.699	665.4
380.102	689.8
380.504	682
380.906	670.6
381.308	702
381.71	674.6
382.113	695.2
382.515	678.6
382.918	683.8
383.299	687
383.701	702.6
384.104	679
384.507	665.4
384.909	688.4
385.312	671
385.715	671.2
386.118	671.4
386.521	672.6
386.924	699.4
387.327	676.6
387.709	667.8
388.112	656.8
388.515	678.4
388.918	684.2
389.322	687.4
389.725	672.8
390.129	708.6
390.532	689.8
390.936	680.2
391.339	676.4
391.743	681.6
392.125	671.4
392.529	702.4
392.933	700.8
393.337	681.2
393.74	686.4
394.144	685.8
394.548	675.8
394.953	687.8
395.357	683.2
395.761	684.4
396.144	683.4
396.548	681.8
396.952	677.4
397.357	691.2
397.761	680.6
398.166	681.8
398.57	684.2
398.975	671.4
399.379	687.8
399.763	736.6
400.168	693.4
400.572	683
400.977	680.6
401.382	699
401.787	698
402.192	708.4
402.597	697
403.002	672.4
403.386	687
403.791	702.2
404.197	688.8
404.602	674.4
405.007	677.6
405.413	675.4
405.818	682
406.224	667.2
406.608	672.6
407.014	666.2
407.42	694.4
407.825	671.4
408.231	683
408.637	676.2
409.043	700
409.449	676.8
409.834	677.6
410.24	681.2
410.646	692.2
411.052	694.4
411.458	687.4
411.865	684.2
412.271	692.2
412.677	681.6
413.062	694
413.469	670
413.875	714.8
414.282	698.4
414.689	680.6
415.095	690.2
415.502	676.4
415.888	676.6
416.294	669
416.701	734.4
417.108	680.6
417.515	690.6
417.923	683.2
418.33	707
418.715	690.4
419.123	677.4
419.53	686.2
419.937	680
420.345	700
420.752	677.6
421.16	700.4
421.546	684.2
421.953	693.6
422.361	677.8
422.769	685.8
423.177	673.6
423.585	705
423.992	712.4
424.379	702.2
424.787	699
425.195	704.6
425.603	694.2
426.011	703.4
426.419	704.6
426.806	682.2
427.214	695.2
427.623	694.8
428.031	705
428.44	690.6
428.848	705.8
429.235	706
429.644	689.8
430.053	691.6
430.461	701
430.87	721.6
431.279	703.8
431.666	686.8
432.075	694.4
432.484	695.8
432.893	681.2
433.302	711.2
433.711	741.8
434.099	690.2
434.508	679
434.918	667.6
435.327	695.8
435.737	694
436.125	691.2
436.534	692.2
436.944	691.8
437.353	684.2
437.763	710.4
438.173	664.4
438.561	706.8
438.971	676
439.381	693.2
439.791	695.4
440.201	670
440.589	695
440.999	703
441.409	696.4
441.819	692.8
442.23	715.2
442.619	707
443.029	696.6
443.439	699.8
443.85	713.6
444.26	725.2
444.649	715.2
445.06	701.2
445.471	698.6
445.881	699.2
446.292	722.6
446.682	735
447.092	686
447.503	763.6
447.914	705.8
448.325	695.6
448.715	707.2
449.126	698
449.537	704
449.948	704
450.338	706.6
450.75	720.8
451.161	709.4
451.572	705.8
451.984	707.8
452.374	685.8
452.786	716.8
453.197	718.2
453.609	724
453.999	696.4
454.411	699.8
454.823	732.8
455.235	707
455.647	714.8
456.037	719.2
456.449	701.2
456.862	721.4
457.274	719.8
457.665	705
458.077	726
458.489	754.8
458.902	714.6
459.293	718.6
459.705	710.4
460.118	708.6
460.53	723.6
460.921	724
461.334	711.4
461.747	716.2
462.16	735.2
462.551	727
462.964	729.4
463.377	697.2
463.79	715.4
464.182	730.8
464.595	708.6
465.008	726.8
465.421	727.2
465.813	722.4
466.226	718.4
466.64	709.4
467.053	768
467.445	735.8
467.859	723
468.272	719.8
468.686	732
469.078	713.8
469.492	699.8
469.906	712.4
470.298	732.2
470.712	709.4
471.126	782.2
471.54	707.8
471.933	717.4
472.347	720.4
472.761	709.8
473.175	702.2
473.568	709.6
473.982	709.2
474.397	710.4
474.79	718.8
475.204	729.4
475.619	720
476.033	728.2
476.426	717.6
476.841	713
477.256	753.2
477.649	714.8
478.064	713.8
478.479	713.8
478.872	719.8
479.287	703.8
479.702	709.6
480.118	719
480.511	721
480.927	718.2
481.342	711
481.736	723
482.151	707.6
482.566	717.6
482.96	716.8
483.376	725.8
483.792	706.2
484.186	728.4
484.602	712.6
485.017	712.6
485.412	707.6
485.827	729.8
486.243	711.6
486.638	734.4
487.054	725.4
487.47	736
487.865	717.8
488.281	699.8
488.697	714.2
489.092	714.8
489.508	701.6
489.925	722.6
490.32	701.6
490.736	727.2
491.153	723.2
491.548	718
491.964	725.2
492.381	689.8
492.776	712.2
493.193	719.6
493.61	715.8
494.006	710.6
494.422	716.8
494.84	703.4
495.235	722.2
495.652	717
496.069	715.8
496.465	707.2
496.883	710.8
497.3	740.2
497.696	708.2
498.113	716.6
498.509	691.6
498.927	698.6
499.344	703.6
499.741	695
500.158	717.4
500.576	724.2
500.973	713.2
501.39	701.6
501.787	697.6
502.205	709.8
502.623	694.4
503.02	694.6
503.438	709.2
503.856	697
504.253	702.8
504.671	701.2
505.068	699.6
505.486	699.6
505.905	725.4
506.302	702.6
506.72	715
507.118	695.2
507.536	700.8
507.955	697.2
508.352	698.6
508.771	710.8
509.169	704.4
509.587	691
510.006	705.6
510.404	680
510.823	692
511.221	689.6
511.64	689.2
512.038	709.6
512.457	694.4
512.877	696.4
513.275	685.4
513.694	698
514.092	684.8
514.512	701.6
514.91	699.2
515.33	690.6
515.749	696.2
516.148	705.8
516.568	702.2
516.966	688.8
517.386	688.4
517.785	704
518.205	691.8
518.603	689.4
519.024	694.6
519.444	696
519.843	703
520.263	704
520.662	706.8
521.082	692.4
521.481	696
521.902	685
522.301	691.8
522.722	696
523.121	680.8
523.542	691.6
523.963	690
524.362	702.6
524.783	703.4
525.183	690
525.604	700.6
526.003	687.6
526.425	685.6
526.824	696
527.246	697
527.646	701.8
528.067	673.8
528.467	698.4
528.888	692.8
529.289	696.2
529.71	692.4
530.11	692.4
530.532	684.2
530.932	682
531.354	685.8
531.755	735.8
532.176	698.4
532.577	680.8
532.999	693.2
533.4	688
533.822	698.6
534.223	691.8
534.645	676.2
535.046	690
535.468	692.4
535.869	701.6
536.292	688.4
536.693	730
537.115	687
537.516	688.4
537.939	689.8
538.34	708.4
538.742	692.6
539.165	690.4
539.566	679.2
539.989	675.8
540.391	685.4
540.814	691.4
541.216	673.2
541.639	680.2
542.041	701.4
542.464	683.6
542.866	683
543.268	670.8
543.691	690.4
544.093	692
544.517	710.8
544.919	671.2
545.343	707
545.745	677.2
546.147	688.8
546.571	683.2
546.974	669.8
547.398	684.2
547.8	709
548.224	674
548.627	674.4
549.03	694
549.454	673
549.857	665.8
550.281	678.4
550.684	670.4
551.087	694.8
551.512	680.8
551.915	692
552.34	686.4
552.743	681.6
553.146	689
553.571	682.4
553.975	702.2
554.399	670
554.803	732.6
555.207	680.4
555.632	662.6
556.036	674
556.461	664.8
556.865	683.6
557.268	669
557.694	670.6
558.098	685.4
558.502	675.4
558.927	663.2
559.332	676.2
559.736	669.6
560.162	689.6
560.566	674
560.992	685.6
561.396	679.8
561.801	684.8
562.227	679.4
562.631	677.2
563.036	674.2
563.462	688.8
563.867	673
564.272	665.8
564.698	681.8
565.103	669.2
565.508	700.6
565.935	678
566.34	672.4
566.745	691.4
567.172	674.4
567.577	700
567.982	691.8
568.409	690.2
568.815	668.8
569.22	682.8
569.626	689.8
570.053	664.8
570.459	681.8
570.865	687.2
571.292	680.4
571.698	681.6
572.104	667.2
572.531	668.2
572.937	684.8
573.343	674.6
573.75	667.6
574.177	679.8
574.583	685.4
574.99	670.4
575.396	677.4
575.824	665
576.231	674
576.637	667.2
577.065	703.6
577.472	671
577.879	669
578.286	687.4
578.714	669.2
579.121	676.4
579.528	678.8
579.935	681.4
580.364	666.8
580.771	655.4
581.178	659.2
581.585	678.6
582.014	684.6
582.421	668.2
582.829	673.6
583.236	679
583.644	661.4
584.073	662.8
584.481	670.8
584.889	656
585.296	674
585.726	675.8
586.134	660.2
586.542	663.8
586.95	682.4
587.358	662.4
587.787	668.4
588.196	651.4
588.604	660
589.012	665.6
589.421	656.6
589.851	667.6
590.259	669.8
590.668	663.4
591.076	708.8
591.485	661.4
591.894	670.8
592.324	687.4
592.733	683.8
593.142	659.2
593.551	671.8
593.96	674
594.369	657.4
594.8	652
595.209	666.8
595.618	644.8
596.028	667.4
596.437	651.6
596.847	664.6
597.256	676
597.687	675.8
598.097	668.8
598.507	656.6
598.917	676.8
599.327	678.8
599.736	663.4
600.146	686.2
600.556	671.8
600.988	691.2
601.398	667.2
601.808	683.2
602.219	652.2
602.629	661.4
603.039	671.8
603.45	699.8
603.86	667
604.271	684.4
604.703	669.6
605.114	674.6
605.525	677.2
605.935	677.8
606.346	692.4
606.757	672.6
607.168	664.2
607.579	661.2
607.99	681.8
608.402	676.6
608.813	679
609.224	661.6
609.636	654.4
610.047	652.6
610.48	671.6
610.892	671.8
611.303	678.4
611.715	670.4
612.127	658.6
612.539	660
612.95	660
613.362	651.8
613.774	652
614.186	648
614.599	656.2
615.011	674.8
615.423	657.4
615.835	660.4
616.248	650.8
616.66	658.2
617.073	658.2
617.485	665.4
617.898	676.4
618.311	659.4
618.723	669.2
619.136	692.8
619.549	688.6
619.962	704.6
620.375	665.6
620.788	667
621.201	652.8
621.614	681
622.028	668.6
622.441	670.4
622.854	680.8
623.268	654.4
623.681	674.2
624.095	666.4
624.509	678.8
624.922	671.2
625.336	654.8
625.728	666.2
626.142	678.4
626.556	682.8
626.97	677
627.384	664.8
627.799	680.4
628.213	677
628.627	661.4
629.041	666
629.456	655.4
629.87	668.4
630.285	681.6
630.699	679.2
631.093	666.8
631.507	673.8
631.922	673
632.337	679.6
632.752	657.4
633.167	669.6
633.582	665.2
633.997	655.2
634.412	664.6
634.806	665.8
635.221	655.4
635.637	683.6
636.052	655
636.468	670.4
636.883	683
637.299	658.2
637.715	659
638.109	670.2
638.525	653
638.941	683.6
639.357	681.8
639.773	679.4
640.189	655.4
640.584	662.8
641	669
641.416	660
641.832	664
642.249	663.8
642.665	670.4
643.06	670.2
643.477	673
643.894	644
644.31	669
644.727	668
645.123	663.4
645.54	653.2
645.957	666
646.374	675.2
646.77	657.4
647.187	691.4
647.604	661.4
648.021	656.2
648.439	660.4
648.835	674.6
649.252	658.8
649.67	663.2
650.088	664.4
650.484	659.6
650.902	675.6
651.32	674.8
651.738	660
652.134	669.4
652.552	689.8
652.971	671.4
653.389	659
653.786	678.2
654.204	687.8
654.622	659
655.019	658.2
655.438	672.2
655.857	667.6
656.275	676.8
656.673	668.6
657.091	748.8
657.51	672.6
657.908	679
658.327	684.8
658.746	660
659.144	665.8
659.563	678.6
659.982	669.6
660.38	654.6
660.8	670.2
661.219	682.2
661.617	667.2
662.037	665
662.457	684.6
662.855	653.6
663.275	702.4
663.695	666.2
664.094	670.2
664.514	679.2
664.934	651.8
665.333	669.4
665.753	657.2
666.152	657.8
666.572	663.4
666.993	678.8
667.392	658.6
667.812	668.4
668.212	673.6
668.632	670.6
669.053	664.4
669.453	668
669.874	662.2
670.273	670.2
670.694	666.8
671.116	675.4
671.515	672
671.937	663.2
672.337	667.6
672.758	662.6
673.158	677.8
673.58	653.4
673.98	668.8
674.402	678.4
674.824	669.2
675.224	658.6
675.646	655.4
676.047	651.6
676.469	654.4
676.869	671.6
677.292	663.6
677.693	660.6
678.115	662.6
678.516	662
678.939	661
679.34	658.6
679.762	673.6
680.164	660.2
680.586	648.4
680.988	665.8
681.411	688.4
681.812	649.4
682.236	653.2
682.637	652.2
683.061	655.6
683.462	666
683.864	659.8
684.288	670.4
684.69	655.4
685.114	670.4
685.516	672.2
685.94	654.8
686.342	668.6
686.766	651.2
687.168	658.8
687.571	686.6
687.995	662.2
688.398	641
688.822	664
689.225	665.4
689.628	678.8
690.052	665.8
690.456	673
690.88	666.6
691.284	657
691.687	662.4
692.112	653.4
692.515	656.2
692.919	667.2
693.344	662
693.747	657.6
694.173	652.2
694.577	679
694.98	665.4
695.406	654.2
695.81	667.6
696.214	660.8
696.64	669.6
697.044	669
697.448	673.2
697.874	648
698.279	661.6
698.684	653.8
699.11	648.8
699.514	666
699.919	663.2
700.324	655.2
700.75	656
701.156	659
701.561	674.8
701.987	667.6
702.393	672
702.798	676.6
703.203	664.8
703.63	657.8
704.036	656.2
704.442	667.8
704.847	647.6
705.274	663
705.68	671.6
706.086	668.2
706.492	654.4
706.92	660.4
707.326	680
707.732	663
708.139	653
708.545	649.4
708.973	657.6
709.38	670.6
709.786	654.4
710.193	674.6
710.6	669.6
711.028	648.8
711.435	664.4
711.842	663
712.249	656.4
712.656	660.8
713.064	676
713.492	656.6
713.9	658.6
714.307	668.4
714.715	663.2
715.123	667.8
715.53	662.6
715.938	673.8
716.367	663.6
716.775	647.6
717.184	654.8
717.592	660
718	670.8
718.408	689.8
718.816	695.6
719.225	655.2
719.633	663.2
720.042	646.6
720.472	664.4
720.881	683.4
721.29	650.4
721.699	643.8
722.108	664.8
722.517	665.8
722.926	658.2
723.335	674.4
723.744	663.4
724.154	666
724.563	664
724.973	665.2
725.382	664
725.792	664.6
726.202	654
726.612	678.6
727.022	660
727.432	662
779.813	660.2
780.223	709.4
780.634	659.6
781.044	654.4
781.454	663.8
781.865	675.8
782.276	655
782.686	671.6
783.097	658.4
783.508	663.4
783.919	662.6
784.33	673.6
784.741	673.6
785.152	657.4
785.563	650.8
785.974	655.2
786.386	672
786.776	664.4
787.188	667.4
787.599	650.2
788.011	673.2
788.423	665.4
788.835	665.2
789.247	655.8
789.659	655
790.071	659.4
790.483	701.2
790.874	660.4
791.286	669.8
791.699	657.4
792.111	660.2
792.524	675
792.937	650.8
793.349	650
793.741	656.6
794.154	648.2
794.567	682.6
794.98	668.6
795.393	648.6
795.785	668
796.198	659.4
796.612	664.4
797.026	672.4
797.439	645
797.831	657.4
798.245	648.2
798.659	658.4
799.073	659.2
799.487	647
799.88	662.8
800.294	660.2
800.708	663.8
801.123	661.4
801.516	677.2
801.93	643.2
802.345	644.2
802.76	660.4
803.153	670.8
803.568	666.6
803.983	664.6
804.377	654.2
804.792	645
805.207	642.8
805.601	665.6
806.016	707
806.432	653.8
806.826	692.4
807.242	674.4
807.658	671.8
808.052	657
808.468	658
808.884	653.6
809.279	664.2
809.695	678.2
810.111	689.8
810.506	667.4
810.922	674
811.339	660
811.734	670.2
812.151	649.6
812.546	653.8
812.963	656.6
813.38	664.6
813.776	660.2
814.193	687.6
814.589	647.6
815.006	655.2
815.402	652.8
815.82	656
816.237	660.2
816.633	662.4
817.051	655.4
817.448	659.2
817.866	650
818.262	677.8
818.68	652.6
819.077	654
819.495	658.8
819.892	704.6
820.311	649
820.708	652.6
821.127	653
821.524	670.2
821.943	672.2
822.34	680.4
822.759	662
823.157	655.8
823.576	677.8
823.974	672.2
824.393	742.4
824.791	664
825.189	652
825.609	655.6
826.007	657.2
826.427	640.2
826.826	650.2
827.246	671.2
827.644	641.2
828.043	661.8
828.463	656.6
828.862	665
829.261	671.4
829.682	648
830.081	660.4
830.502	655.2
830.901	666.4
831.301	658.6
831.722	643
832.121	656.4
832.521	653.8
832.943	660.2
833.342	656.2
833.742	651.2
834.164	659.6
834.564	643.8
834.965	656.6
835.386	661.2
835.787	648
836.188	648.8
836.588	654.6
837.01	657.2
837.411	641.8
837.812	667.6
838.213	656.4
838.636	649.2
839.037	736.2
839.438	651.8
839.84	662.6
840.263	665
840.664	668.4
841.066	653.2
841.468	659.2
841.891	665
842.293	671.4
842.695	663.2
843.098	666.8
843.5	652
843.902	662
844.326	657.4
844.729	662
845.131	673.4
845.534	652.2
845.937	670.2
846.34	676.2
846.764	644.8
847.167	664.2
847.571	661.4
847.974	656
848.377	655
848.781	704.2
849.184	678.2
849.588	654.8
849.992	652.6
850.396	658.8
850.821	682.2
851.225	660.6
851.63	658.8
852.034	681.2
852.438	659.6
852.843	705.8
853.247	646
853.652	660.4
854.057	675
854.462	658.4
854.867	673
855.272	698.8
855.677	657
856.082	649.6
856.487	643.6
856.893	659.8
857.298	656
857.704	657.2
858.11	656.2
858.516	674.2
858.922	669.4
859.328	666.8
859.734	648.8
860.14	663.6
860.525	658.4
860.931	649.4
861.338	656.8
861.745	662.4
862.151	665.4
862.558	658.6
862.965	650.2
863.372	650.8
863.779	645.8
864.186	676
864.572	661.4
864.98	671.4
865.387	693.8
865.795	656.2
866.203	667.8
866.61	647.8
867.018	667.4
867.405	669.6
867.813	643.2
868.221	654.2
868.63	643.4
869.038	658.4
869.425	699.4
869.834	661.4
870.243	645.4
870.652	640
871.039	661.2
871.448	650.8
871.857	657
872.266	652.2
872.654	656
873.064	644.4
873.473	662.8
873.883	646.4
874.271	640
874.681	659.4
875.091	636.6
875.48	668.8
875.89	678.6
876.3	648.2
876.689	643.2
877.1	656
877.51	650.8
877.9	682.2
878.31	656.4
878.721	686.4
879.111	667.4
879.522	659.6
879.933	656.2
880.323	644
880.734	657.4
881.125	658.6
881.536	651
881.948	651
882.338	652.8
882.75	666.6
883.141	654.2
883.553	664.2
883.944	684.2
884.356	667.2
884.769	654.4
885.16	649.4
885.573	656.6
885.964	659
886.377	656.8
886.768	652.8
887.181	662.6
887.573	656.4
887.987	664.2
888.378	669.8
888.792	661.8
889.184	711.6
889.598	652.6
889.99	655.6
890.383	648.8
890.797	639.8
891.19	664.2
891.604	655
891.997	651.4
892.411	654.8
892.805	639.2
893.198	649.8
893.613	642.4
894.006	656.2
894.421	647.8
894.815	656.4
895.209	651.8
895.624	700.2
896.018	672.4
896.412	654.4
896.828	656.4
897.222	661.2
897.617	653.6
898.033	670.8
898.427	660.8
898.822	653.6
899.239	647.4
899.634	648.4
900.029	676.8
900.424	644.2
900.841	643.8
901.236	664.6
901.632	666.2
902.027	711.8
902.445	659
902.841	654.2
903.237	647.2
903.633	664.6
904.05	659
904.447	661.4
904.843	667
905.24	653.2
905.636	639.2
906.033	668
906.451	669.4
906.848	646
907.246	646.8
907.643	650.4
908.04	661.8
908.438	679
908.835	654
909.254	658.4
909.652	663.2
910.05	657.4
910.448	652
910.846	658.2
911.244	639.8
911.643	665.8
912.041	654.4
912.44	668.8
912.839	642.6
913.237	649.6
913.636	649.4
914.035	669
914.434	654.4
914.834	670.2
915.233	667
915.633	650.6
916.032	650.8
916.432	649.6
916.832	670.8
917.232	645
917.632	644.8
918.032	657.6
918.432	656.2
918.833	654
919.233	658.6
919.634	640.6
920.035	658.6
920.436	641.8
920.837	659.8
921.238	649
921.639	650
922.019	657
922.42	661.8
922.822	662.4
923.224	657.2
923.625	650.8
924.027	649.6
924.429	687.6
924.81	661
925.212	659.8
925.615	660.8
926.017	653.4
926.42	660.4
926.801	662
927.204	647.6
927.607	658
928.01	674.2
928.413	661
928.795	639
929.199	648
929.602	656.4
930.006	649
930.388	648.2
930.792	662.6
931.196	656.2
931.579	702.6
931.983	641.2
932.388	707.8
932.771	658.4
933.176	646
933.58	656.8
933.964	661
934.369	635
934.774	655.6
935.158	655.4
935.563	652.8
935.947	657.8
936.353	665.4
936.759	650.2
937.143	659.2
937.549	652.4
937.934	660.6
938.34	679.8
938.746	644.4
939.131	654.8
939.538	648.8
939.923	651.4
940.33	647.2
940.716	658.6
941.123	655.4
941.508	662.6
941.916	678.6
942.302	659.8
942.709	639
943.096	658.4
943.503	662
943.89	639.4
944.298	640
944.685	680.2
945.072	650.8
945.48	666.6
945.867	638.4
946.276	644.8
946.663	667.8
947.051	665.8
947.46	669.6
947.848	656.8
948.257	647.8
948.645	653.4
949.033	646
949.443	646.4
949.831	701.4
950.22	642.4
950.63	663.4
951.018	699
951.407	652.6
951.796	643.8
952.207	657.4
952.596	668.8
952.985	641.2
953.375	704
953.786	665.2
954.176	638.4
954.566	660.6
954.956	648
955.367	648
955.758	681.2
956.148	642.8
956.539	666
956.929	645.6
957.341	647.4
957.732	650
958.123	661
958.515	642.6
958.906	657.6
959.297	647.8
959.689	659.2
960.102	653.8
960.494	654.8
960.886	647.2
961.278	645.8
961.67	680
962.062	698
962.455	648.4
962.847	652.2
963.24	651.8
963.633	660.2
964.026	642.4
964.419	649.2
964.812	661.6
965.206	654.2
965.599	656.8
965.993	659.6
966.386	658.4
966.78	668.8
967.174	667
967.569	643.2
967.963	645.2
968.357	645.6
968.752	647.6
969.146	645.6
969.541	639.4
969.936	647
970.331	651.6
970.705	650.4
971.1	645.2
971.496	666.2
971.892	645.6
972.287	649
972.683	643.8
973.079	642.2
973.454	662.6
973.85	649
974.247	656
974.643	685.8
975.04	648.8
975.415	649.2
975.812	642
976.209	651.4
976.607	644.6
976.982	648.2
977.38	670.2
977.778	651.6
978.175	653
978.552	659.4
978.95	655
979.348	662.4
979.725	700.8
980.123	654.2
980.522	652
980.899	652.6
981.298	647.4
981.697	651.2
982.075	648.4
982.474	650
982.852	652.4
983.251	652.8
983.651	649.2
984.029	658.2
984.429	652.6
984.808	639.4
985.208	650.8
985.609	652.4
985.987	637.6
986.388	647.2
986.768	663.6
987.168	642
987.548	658.4
987.949	663.8
988.329	665.2
988.731	641.6
989.111	650
989.491	654.8
989.893	650.6
990.273	659.8
990.676	643.8
991.057	645.8
991.459	648.6
991.84	647.2
992.221	639.2
992.624	676.8
993.006	655.4
993.388	660
993.791	659.6
994.173	655.2
994.576	689.8
994.959	646.8
995.341	649.2
995.724	648.2
996.128	651.4
996.511	654.4
996.894	648.2
997.298	651.2
997.681	660.8
998.065	651.8
998.448	647.2
998.854	657.6
999.237	642.2
999.621	667.8
1000.01	667.8
1000.39	650.4
1000.8	651.8
1001.18	650.4
1001.56	654.6
1001.95	660.2
1002.33	655.8
1002.72	652.2
1003.13	651.4
1003.51	641
1003.9	650.4
1004.28	672
1004.67	648.6
1005.06	653.8
1005.44	687
1005.83	637.8
1006.21	649.8
1006.6	652.4
1006.99	672.6
1007.37	665
1007.76	655.2
1060.12	640
1060.51	646.4
1060.89	655.4
1061.28	661.4
1061.67	666
1062.06	650.4
1062.45	650.4
1062.83	644.2
1063.22	661.4
1063.61	704.2
1064	661.6
1064.39	655
1064.78	650.8
1065.14	665.2
1065.53	651.6
1065.92	644
1066.31	645.6
1066.7	662.4
1067.09	662.4
1067.46	662.4
1067.85	651.2
1068.24	651.8
1068.63	667.6
1069.02	644.2
1069.39	657.2
1069.78	644
1070.17	645.2
1070.57	644.6
1070.93	655.4
1071.33	645
1071.72	659
1072.11	644.6
1072.48	652.2
1072.87	652
1073.26	640.8
1073.64	645.4
1074.03	643.4
1074.4	653
1074.79	646.8
1075.19	651.4
1075.56	657.6
1075.95	656.4
1076.34	651
1076.72	652.6
1077.11	656.4
1077.48	662.2
1077.88	656.8
1078.25	649.4
1078.64	654
1079.02	659.6
1079.41	666.6
1079.78	655
1080.18	650.2
1080.55	729.8
1080.95	640.4
1081.32	643.2
1081.72	663.4
1082.09	661
1082.49	649
1082.86	651.8
1083.24	636.2
1083.63	632
1084.01	644.8
1084.38	653.2
1084.78	646.2
1085.16	655
1085.55	668.8
1085.93	667.2
1086.31	639.4
1086.7	690.6
1087.08	648.4
1087.46	645.6
1087.83	638.4
1088.23	657.4
1088.61	650.8
1088.99	647.2
1089.36	646.6
1089.76	653
1090.14	653.2
1090.52	647
1090.9	640.4
1091.27	653.6
1091.67	674.4
1092.05	663.8
1092.43	649.8
1092.81	657.4
1093.19	660.2
1093.57	646.6
1093.95	642.6
1094.35	654.6
1094.73	657.2
1095.11	647.6
1095.49	645.4
1095.87	650.2
1096.25	668.6
1096.63	662.6
1097.01	656.6
1097.39	654.4
1097.77	654.6
1098.15	656.4
1098.53	645.4
1098.91	650.8
1099.29	647.2
1099.68	668.4
1100.06	658.6
1100.44	653.2
1100.82	654.8
1101.18	657.8
1101.56	647.2
1101.95	654.6
1102.33	652.4
1102.71	650.8
1103.1	644.4
1103.48	634
1103.86	633.8
1104.22	654.6
1104.61	652.8
1104.99	647
1105.38	644.8
1105.76	655.4
1106.12	649.2
1106.51	696.4
1106.89	656.8
1107.26	651
1107.64	662
1108.03	649.6
1108.41	649.2
1108.78	660.4
1109.16	651
1109.55	660.8
1109.91	631.8
1110.3	636.6
1110.69	673.2
1111.05	657
1111.44	656.8
1111.8	651.2
1112.19	652
1112.58	655.8
1112.94	641.6
1113.33	649
1113.7	641.8
1114.09	649.6
1114.45	648.8
1114.84	647.4
1115.21	654
1115.6	640.2
1115.96	650.4
1116.35	653.6
1116.72	636.2
1117.11	649.2
1117.48	641.2
1117.85	640.4
1118.24	667.6
1118.6	651.4
1118.99	643
1119.36	646.2
1119.73	652.4
1120.12	647
1120.49	632.4
1120.86	646.8
1121.25	643.4
1121.62	634.6
1121.99	636.4
1122.38	665.2
1122.76	644.6
1123.13	640
1123.5	640.6
1123.89	667
1124.26	643
1124.63	642.2
1125	647.2
1125.4	646.2
1125.77	635.2
1126.14	630
1126.51	646.2
1126.88	651.8
1127.26	648
1127.63	623
1128.02	646.4
1128.4	632.8
1128.77	641.6
1129.14	646.4
1129.52	650.8
1129.89	657
1130.26	637.2
1130.64	631.2
1131.01	638.4
