#lambda/nm	C1
208.295	553
208.67	502.6
209.045	468.6
209.419	457
209.794	694.6
210.169	669.4
210.544	811.8
210.919	696.6
211.295	679.6
211.67	695.8
212.045	692
212.421	695.6
212.796	733.6
213.172	682.6
213.547	676.6
213.923	684.2
214.299	679.4
214.675	698
215.051	691.6
215.427	689.8
215.803	706.2
216.179	692
216.555	680.2
216.932	691.4
217.308	691.8
217.684	684.6
218.061	696
218.438	687.6
218.814	680.4
219.191	706.6
219.568	690
219.945	689.8
220.322	701.6
220.699	697.8
221.076	704.4
221.453	694.8
221.83	691.2
222.208	686.2
222.585	686.6
222.962	695.2
223.34	699
223.717	693.2
224.095	682.2
224.473	693
224.851	689.2
225.229	688.4
225.607	707.4
225.985	690.2
226.363	691.2
226.741	697.2
227.119	689
227.497	702
227.876	671.2
228.254	705.6
228.633	688.4
229.011	693.8
229.39	700.2
229.769	690
230.148	697.4
230.527	711.2
230.905	683.6
231.284	686
231.664	687.4
232.043	699.6
232.422	708
232.801	680.2
233.181	695.6
233.56	691.2
233.94	696
234.319	674
234.699	687.8
235.079	737
235.458	743
235.838	713.8
236.218	684.2
236.598	672.4
236.978	684.8
237.358	673.6
237.738	690.6
238.119	692.2
238.499	687.6
238.88	692.8
239.26	708
239.641	678
240.021	680.4
240.402	693.8
240.783	685.8
241.163	685.6
241.544	700.2
241.925	697
242.306	699.8
242.687	680.2
243.069	691.4
243.45	700.2
243.831	688.6
244.212	687.8
244.594	732.8
244.975	706
245.357	687
245.739	688.2
246.12	685.6
246.502	705.8
246.884	684.8
247.266	687.4
247.648	688.2
248.03	716
248.412	699.4
248.794	703.4
249.176	695
249.559	702
249.941	680.2
250.323	681
250.706	684
251.089	680.2
251.471	693.6
251.854	693
252.237	694.4
252.62	709
253.002	688.6
253.385	688.6
253.769	708.6
254.152	687.2
254.535	700.8
254.918	679.2
255.301	686.6
255.685	686.2
256.068	675.4
256.452	707.8
256.835	705.8
257.219	699.6
257.603	705
257.986	686
258.37	703.4
258.754	680
259.138	698
259.522	703.6
259.906	695.2
260.29	695.8
260.675	689
261.059	687.8
261.443	673.2
261.828	697.8
262.212	695.2
262.597	676.2
262.981	686.2
263.366	695.8
263.751	695
264.136	690.6
264.521	681.6
264.906	686.4
265.291	702.8
265.676	685
266.061	692.4
266.446	710
266.831	689.4
267.217	708
267.602	693
267.987	700.8
268.373	686.8
268.759	699.2
269.144	691.2
269.53	686
269.916	679.8
270.302	676
270.688	686
271.074	694.4
271.46	705
271.846	731
272.232	689.6
272.618	686
273.004	689.2
273.391	705.2
273.777	710.6
274.164	706.2
274.55	714.2
274.937	705.6
275.324	688.2
275.71	702.6
276.097	689.4
276.484	678.4
276.871	689.8
277.258	697.2
277.645	683.2
278.032	688
278.419	681.6
278.807	693.8
279.194	674.2
279.581	682.2
279.969	692.2
280.356	696.6
280.744	691.6
281.131	717.6
281.519	700.6
281.907	681.8
282.295	693
282.682	710.2
283.07	700.4
283.458	699.4
283.846	706.4
284.235	706
284.623	693.8
285.011	692.6
285.399	690.8
285.788	707
286.176	682.2
286.565	702.6
286.953	684.8
287.342	690.4
287.731	683.8
288.119	693.4
288.508	689.4
288.897	692
289.286	676
289.675	697
290.064	695.8
290.453	692.6
290.821	702.4
291.21	716.6
291.599	691
291.989	693.4
292.378	698.8
292.768	716.4
293.157	695
293.547	701
293.936	684.2
294.326	689
294.716	699.8
295.106	685.6
295.496	704
295.886	702
296.276	693.2
296.666	691.6
297.056	686.8
297.446	681.4
297.836	707.6
298.227	691.2
298.617	700.8
299.008	702
299.398	695
299.789	697.8
300.179	704.4
300.57	711.4
300.961	682.6
301.352	686.8
301.742	707
302.133	691
302.524	698
302.915	688.8
303.307	690.8
303.698	698
304.089	700.4
304.48	691.4
304.872	704.2
305.263	689.2
305.655	684
306.046	695.2
306.438	704
306.829	694.6
307.221	707.4
307.613	696
308.005	707.6
308.397	709.6
308.789	708.6
309.181	714.4
309.573	730
309.965	710.2
310.357	689.4
310.749	707.4
311.142	693.8
311.534	689.4
311.926	704.8
312.319	702.2
312.711	691
313.104	712.8
313.497	700.2
313.889	739.6
314.282	708.4
314.675	718.4
315.068	696.6
315.461	704.6
315.854	736.2
316.247	702.2
316.64	694
317.033	705.6
317.405	701.6
317.798	692.2
318.192	703.8
318.585	682.6
318.979	708
319.372	692.4
319.766	684.4
320.16	704.4
320.553	712.8
320.947	717.2
321.341	679.4
321.735	683
322.129	673.2
322.523	724.4
322.917	684.6
323.311	713.4
323.705	697.4
324.099	699.8
324.494	719.8
324.888	709.6
325.282	691.6
325.677	713.2
326.071	704.4
326.466	699.4
326.861	705.8
327.255	716.2
327.65	708.8
328.045	725.4
328.44	696.2
328.835	689.8
329.23	687.6
329.625	724.4
330.02	693.8
330.415	727.4
330.81	693.6
331.206	707
331.601	692.6
331.996	706.4
332.37	713.4
332.766	684.6
333.161	722.8
333.557	688.4
333.953	701
334.348	1129.4
334.744	694
335.14	693.6
335.536	699.8
335.932	702
336.328	693.4
336.724	701.8
337.12	697.4
337.516	697.6
337.913	706.4
338.309	705.6
338.705	691.6
339.102	701
339.498	685.2
339.895	711.4
340.291	695.8
340.688	710
341.085	688.2
341.481	691.2
341.878	695.2
342.275	714.4
342.672	689.4
343.069	682.6
343.466	678.6
343.842	705.6
344.239	684.8
344.636	688.4
345.033	693.6
345.431	694.2
345.828	694.8
346.225	690.6
346.623	731.2
347.02	687
347.418	700.6
347.816	708.6
348.213	684.6
348.611	695.4
349.009	683.6
349.407	708.8
349.805	680.8
350.203	672.6
350.601	710.2
350.999	699
351.397	760.6
351.795	695.8
352.193	704.8
352.57	697.2
352.969	709.6
353.367	677.8
353.766	681
354.164	685.4
354.563	708.8
354.961	694.6
355.36	681
355.759	684
356.158	681.6
356.557	688.8
356.956	677
357.355	681.6
357.754	694.6
358.153	693.2
358.552	715
358.951	692.8
359.35	702.4
359.75	686.8
360.149	692
360.527	673.6
360.926	685
361.326	696
361.726	680.8
362.125	676.2
362.525	705
362.925	691.2
363.325	695
363.724	699.8
364.124	683
364.524	682.6
364.924	680.4
365.324	703.2
365.725	683.4
366.125	689.6
366.525	677
366.904	680.4
367.304	667
367.705	700.4
368.105	698.6
368.506	687.4
368.906	685.2
369.307	677.6
369.708	687.6
370.108	677.8
370.509	695.8
370.91	675.8
371.311	685.6
371.712	691.6
372.113	687.4
372.514	675.2
372.894	694.8
373.295	678
373.696	701.8
374.097	690.2
374.499	720.2
374.9	689.2
375.301	674.8
375.703	693.6
376.105	680.2
376.506	691
376.908	693.2
377.309	689
377.711	689.6
378.113	667.8
378.493	691.4
378.895	685.6
379.297	693.4
379.699	678.6
380.102	692
380.504	684.8
380.906	676.2
381.308	714
381.71	684.4
382.113	691.4
382.515	674
382.918	687.8
383.299	683.8
383.701	692.2
384.104	691.6
384.507	664.8
384.909	684.6
385.312	674.6
385.715	659.8
386.118	685.6
386.521	675.6
386.924	695.6
387.327	681.6
387.709	671.2
388.112	675.4
388.515	686.8
388.918	682.6
389.322	690.6
389.725	676.8
390.129	715
390.532	686.2
390.936	682
391.339	681
391.743	687.6
392.125	675
392.529	692
392.933	703
393.337	683.8
393.74	678.2
394.144	691.4
394.548	679.8
394.953	686
395.357	692.8
395.761	682.2
396.144	688
396.548	686
396.952	679.4
397.357	687.6
397.761	683
398.166	675.6
398.57	674
398.975	679.4
399.379	692.6
399.763	737.6
400.168	686.2
400.572	683.6
400.977	686.2
401.382	707.4
401.787	695.8
402.192	702.8
402.597	699.6
403.002	675.6
403.386	701.8
403.791	712
404.197	676.8
404.602	678.8
405.007	699
405.413	680.4
405.818	682.6
406.224	674.2
406.608	680.6
407.014	679.2
407.42	705
407.825	687.4
408.231	690.8
408.637	692.4
409.043	710.4
409.449	677.8
409.834	682
410.24	684.2
410.646	697.6
411.052	698
411.458	684.6
411.865	706.6
412.271	696.8
412.677	684.6
413.062	681.8
413.469	674.2
413.875	714
414.282	703.8
414.689	694.8
415.095	693.2
415.502	687.6
415.888	685.4
416.294	663
416.701	733.6
417.108	676.2
417.515	694
417.923	693.8
418.33	708.6
418.715	695.2
419.123	683
419.53	685
419.937	694.8
420.345	699.6
420.752	677
421.16	698
421.546	686.8
421.953	691.4
422.361	666.2
422.769	697.6
423.177	681.4
423.585	719.6
423.992	709.6
424.379	706.2
424.787	696.2
425.195	708.2
425.603	684.8
426.011	704.6
426.419	711.4
426.806	702.8
427.214	691.2
427.623	689.2
428.031	705.6
428.44	698.8
428.848	699.6
429.235	715.8
429.644	688.8
430.053	685.6
430.461	709.8
430.87	725.4
431.279	709
431.666	682.2
432.075	700.2
432.484	702
432.893	683.6
433.302	722
433.711	751.4
434.099	705.6
434.508	682
434.918	683.2
435.327	703.6
435.737	700
436.125	696.4
436.534	695.6
436.944	697.6
437.353	700.6
437.763	722
438.173	692
438.561	711.8
438.971	688
439.381	700.4
439.791	702.4
440.201	682.4
440.589	708.8
440.999	712.6
441.409	719.4
441.819	704.4
442.23	722
442.619	732.8
443.029	714
443.439	724.2
443.85	728.4
444.26	736
444.649	725.4
445.06	728.8
445.471	711.6
445.881	719
446.292	736
446.682	746
447.092	714.8
447.503	782.8
447.914	717.8
448.325	720.8
448.715	721.2
449.126	721.2
449.537	724.2
449.948	725.2
450.338	729.4
450.75	736.8
451.161	728.4
451.572	733.4
451.984	716.4
452.374	707
452.786	727
453.197	733.8
453.609	744.2
453.999	706.6
454.411	716.4
454.823	734
455.235	728.4
455.647	724.8
456.037	742.4
456.449	707
456.862	734.2
457.274	731.6
457.665	715.8
458.077	734.2
458.489	765.6
458.902	723.2
459.293	732.4
459.705	722.4
460.118	716.4
460.53	739
460.921	734
461.334	738.4
461.747	727.2
462.16	743.6
462.551	746.8
462.964	740
463.377	725.2
463.79	731.6
464.182	739.2
464.595	722.4
465.008	731.2
465.421	732.6
465.813	730.6
466.226	736.6
466.64	734.6
467.053	789.2
467.445	749.2
467.859	748
468.272	743.2
468.686	743
469.078	733.4
469.492	714.6
469.906	731
470.298	741.8
470.712	721.2
471.126	800.2
471.54	717.2
471.933	727.8
472.347	724.6
472.761	725.4
473.175	722.2
473.568	724.4
473.982	724.8
474.397	735.6
474.79	730.6
475.204	744.2
475.619	728.2
476.033	730.6
476.426	731.6
476.841	722
477.256	758
477.649	726.2
478.064	721.2
478.479	717.8
478.872	723
479.287	712.8
479.702	719.4
480.118	726.6
480.511	729.6
480.927	728.6
481.342	729.8
481.736	735.4
482.151	723.4
482.566	740
482.96	732.2
483.376	732.6
483.792	717.2
484.186	733.8
484.602	721.2
485.017	728.4
485.412	723.6
485.827	728.8
486.243	730.6
486.638	753.4
487.054	734.6
487.47	745.6
487.865	720.6
488.281	729
488.697	727.4
489.092	720.8
489.508	714.6
489.925	731.2
490.32	708.8
490.736	731
491.153	730
491.548	725
491.964	735.4
492.381	704.8
492.776	726.6
493.193	724.6
493.61	724.8
494.006	718.2
494.422	722.8
494.84	707
495.235	722.2
495.652	710.4
496.069	722.2
496.465	700.8
496.883	708
497.3	753.8
497.696	710
498.113	721.2
498.509	704.6
498.927	709.4
499.344	702.8
499.741	715
500.158	725.8
500.576	718.2
500.973	720.4
501.39	700.6
501.787	708.4
502.205	718
502.623	708.8
503.02	697
503.438	703.4
503.856	710.8
504.253	721.6
504.671	709
505.068	696
505.486	705.6
505.905	731.8
506.302	711
506.72	713.2
507.118	699.8
507.536	715
507.955	711.2
508.352	712
508.771	712.8
509.169	717.2
509.587	695.6
510.006	704.6
510.404	696.8
510.823	705.8
511.221	705.2
511.64	709.8
512.038	719.8
512.457	708.6
512.877	704.6
513.275	693
513.694	703.8
514.092	701.6
514.512	699.2
514.91	700.2
515.33	700.2
515.749	705.6
516.148	706.6
516.568	703
516.966	701
517.386	695
517.785	696.6
518.205	700.2
518.603	702.2
519.024	688.2
519.444	695
519.843	708.2
520.263	707.8
520.662	700.2
521.082	702.4
521.481	696
521.902	705.8
522.301	702.6
522.722	703.4
523.121	700.6
523.542	696.2
523.963	692.8
524.362	691.6
524.783	698.2
525.183	705.8
525.604	707.6
526.003	692.6
526.425	697
526.824	701.6
527.246	700.6
527.646	702.8
528.067	695.6
528.467	692.8
528.888	689.6
529.289	693
529.71	693.4
530.11	683.4
530.532	692
530.932	684.2
531.354	680.6
531.755	730
532.176	700.8
532.577	678.6
532.999	697.6
533.4	684.8
533.822	700
534.223	693.8
534.645	697.4
535.046	679
535.468	689.8
535.869	704.4
536.292	690.6
536.693	741.6
537.115	691.6
537.516	685.2
537.939	686.4
538.34	712.4
538.742	704.2
539.165	700.2
539.566	696.6
539.989	689.8
540.391	689
540.814	686.6
541.216	685.6
541.639	694.8
542.041	700.6
542.464	687
542.866	687.4
543.268	673.8
543.691	692.8
544.093	699.6
544.517	716.6
544.919	676.8
545.343	710.2
545.745	676.6
546.147	704.2
546.571	684.6
546.974	674.6
547.398	689.8
547.8	701
548.224	684.2
548.627	683.4
549.03	685.8
549.454	673.2
549.857	673.2
550.281	679
550.684	685.8
551.087	702
551.512	694
551.915	691.8
552.34	681.2
552.743	673.4
553.146	690.4
553.571	685
553.975	711.8
554.399	683.4
554.803	733.2
555.207	686.2
555.632	674
556.036	693.8
556.461	664.2
556.865	680.4
557.268	677.4
557.694	677.8
558.098	693.6
558.502	681.2
558.927	669
559.332	687.8
559.736	683
560.162	683.6
560.566	678.2
560.992	679
561.396	678.4
561.801	680
562.227	680
562.631	674
563.036	687.4
563.462	688.8
563.867	684.2
564.272	663.6
564.698	683
565.103	664.2
565.508	699.2
565.935	680.6
566.34	672.8
566.745	692.2
567.172	671.4
567.577	701.6
567.982	690.2
568.409	683
568.815	666.8
569.22	681.8
569.626	688.6
570.053	671.6
570.459	681
570.865	687.4
571.292	687.2
571.698	682
572.104	665.4
572.531	672.8
572.937	687
573.343	669.6
573.75	677.6
574.177	682
574.583	690
574.99	675.4
575.396	680.8
575.824	662
576.231	678.8
576.637	668.8
577.065	703.6
577.472	668.6
577.879	686.2
578.286	692.4
578.714	668.8
579.121	677.6
579.528	681.4
579.935	685.6
580.364	675.4
580.771	662.6
581.178	664.2
581.585	677.8
582.014	682.8
582.421	673.2
582.829	666
583.236	685.6
583.644	669.2
584.073	677
584.481	664.8
584.889	670.8
585.296	681.4
585.726	667
586.134	669
586.542	673.6
586.95	699.2
587.358	655
587.787	676.4
588.196	668.8
588.604	661.4
589.012	672.2
589.421	660.6
589.851	658.4
590.259	677.8
590.668	671.6
591.076	710.2
591.485	663.6
591.894	671.2
592.324	682.2
592.733	679.4
593.142	658
593.551	672.4
593.96	674.4
594.369	662.6
594.8	660
595.209	681.4
595.618	650.2
596.028	664.2
596.437	664.6
596.847	680.4
597.256	671.4
597.687	667
598.097	674.2
598.507	650
598.917	667
599.327	686.4
599.736	680
600.146	685.8
600.556	671.4
600.988	687.8
601.398	670.6
601.808	679
602.219	656.4
602.629	665.2
603.039	675.6
603.45	705.4
603.86	682.2
604.271	687.8
604.703	682
605.114	676.2
605.525	665.2
605.935	679.6
606.346	700.2
606.757	678.2
607.168	668
607.579	661.4
607.99	678
608.402	680.2
608.813	676
609.224	671.4
609.636	663.2
610.047	664
610.48	685.8
610.892	680.8
611.303	679
611.715	662.6
612.127	666.2
612.539	662.8
612.95	674.8
613.362	658.4
613.774	654.4
614.186	667.2
614.599	670.2
615.011	685
615.423	676.4
615.835	663.8
616.248	654
616.66	681.4
617.073	668.6
617.485	660.6
617.898	675.4
618.311	674
618.723	671.4
619.136	704.8
619.549	679
619.962	696
620.375	662.4
620.788	672.4
621.201	660
621.614	684
622.028	657.4
622.441	674.6
622.854	693.2
623.268	656.2
623.681	677.6
624.095	679.2
624.509	677.4
624.922	676
625.336	661.8
625.728	672
626.142	680
626.556	705.4
626.97	663.6
627.384	669
627.799	672.8
628.213	698.4
628.627	669
629.041	666
629.456	671.6
629.87	677
630.285	672.4
630.699	679.2
631.093	661.2
631.507	678
631.922	667.6
632.337	677.6
632.752	662
633.167	669.8
633.582	668.2
633.997	658.4
634.412	666
634.806	667.8
635.221	657
635.637	680
636.052	655.6
636.468	672.2
636.883	690.8
637.299	672
637.715	661.4
638.109	674.4
638.525	652.8
638.941	685.6
639.357	670.6
639.773	682.2
640.189	666.4
640.584	664
641	671.6
641.416	656.6
641.832	665.6
642.249	660.6
642.665	675.2
643.06	673.8
643.477	670.6
643.894	657
644.31	663.2
644.727	670.4
645.123	671.4
645.54	658.6
645.957	670
646.374	681.2
646.77	669.4
647.187	695.6
647.604	672
648.021	656
648.439	672.8
648.835	672.4
649.252	667.6
649.67	671.2
650.088	668.6
650.484	677
650.902	672.4
651.32	669.8
651.738	666.8
652.134	674.4
652.552	693.8
652.971	673
653.389	672.4
653.786	697.6
654.204	697.2
654.622	652.2
655.019	678
655.438	670.8
655.857	667.4
656.275	679.4
656.673	662.2
657.091	753.8
657.51	651.4
657.908	675.4
658.327	687.4
658.746	665.4
659.144	673
659.563	691.4
659.982	672
660.38	662
660.8	666.4
661.219	676.6
661.617	676
662.037	662.2
662.457	684.8
662.855	649.6
663.275	701.6
663.695	667.6
664.094	662
664.514	669.6
664.934	651.8
665.333	675.2
665.753	647.8
666.152	666.4
666.572	658.8
666.993	683.8
667.392	659.8
667.812	665.2
668.212	661.4
668.632	685.4
669.053	670.4
669.453	669.6
669.874	678.4
670.273	669.4
670.694	661.2
671.116	687.6
671.515	677.2
671.937	672.2
672.337	658.4
672.758	665.2
673.158	671.6
673.58	650.6
673.98	671.6
674.402	684
674.824	671.8
675.224	665.4
675.646	668.4
676.047	659.4
676.469	662.8
676.869	669
677.292	666.6
677.693	664
678.115	658.6
678.516	666.4
678.939	667.8
679.34	670.2
679.762	675.2
680.164	668.4
680.586	657
680.988	662.8
681.411	687.2
681.812	661.4
682.236	646
682.637	657.6
683.061	649.8
683.462	662.8
683.864	671.2
684.288	667
684.69	654.2
685.114	676.8
685.516	682.4
685.94	650.4
686.342	673
686.766	664.2
687.168	663.2
687.571	684.6
687.995	670
688.398	660
688.822	668
689.225	683.6
689.628	686
690.052	656.4
690.456	681.2
690.88	663.2
691.284	658.8
691.687	683.2
692.112	656
692.515	658
692.919	660.4
693.344	674
693.747	657.6
694.173	662.8
694.577	677.8
694.98	668.4
695.406	653.4
695.81	666.6
696.214	676.4
696.64	663.8
697.044	667.4
697.448	682.4
697.874	663.2
698.279	670
698.684	650.8
699.11	661.2
699.514	662.4
699.919	662.8
700.324	649.8
700.75	665.4
701.156	659.4
701.561	677.4
701.987	673
702.393	677.2
702.798	669.6
703.203	658.4
703.63	648
704.036	664.4
704.442	666.4
704.847	655
705.274	659.4
705.68	671.4
706.086	670.2
706.492	654.6
706.92	661.4
707.326	675
707.732	660.6
708.139	656.6
708.545	650.8
708.973	670.4
709.38	658
709.786	661.2
710.193	684.4
710.6	671.8
711.028	659
711.435	662.8
711.842	664
712.249	664.8
712.656	667.8
713.064	678.8
713.492	655.8
713.9	664.8
714.307	671.4
714.715	667.4
715.123	672.6
715.53	673
715.938	673.6
716.367	666.2
716.775	658.6
717.184	661.4
717.592	657
718	671.6
718.408	701.8
718.816	717
719.225	670.2
719.633	676.4
720.042	653
720.472	662.4
720.881	683.2
721.29	664.6
721.699	655.6
722.108	664.8
722.517	663
722.926	656.8
723.335	667.4
723.744	664.4
724.154	667.2
724.563	663.2
724.973	666.8
725.382	667.8
725.792	658
726.202	663
726.612	685.8
727.022	655.8
727.432	652.8
779.813	663.8
780.223	717.8
780.634	667.4
781.044	662.2
781.454	668.4
781.865	679.8
782.276	662.4
782.686	674
783.097	656.6
783.508	666
783.919	665
784.33	682.8
784.741	672.2
785.152	652
785.563	645.4
785.974	663.6
786.386	660
786.776	663.4
787.188	666.8
787.599	643.6
788.011	675.6
788.423	660.4
788.835	653.2
789.247	646.4
789.659	653.6
790.071	660.2
790.483	718.4
790.874	659.6
791.286	676.4
791.699	659.6
792.111	657.6
792.524	662.2
792.937	667
793.349	654.2
793.741	652.6
794.154	664.6
794.567	681.2
794.98	664.2
795.393	658.6
795.785	673.4
796.198	660
796.612	657.6
797.026	666.6
797.439	644.6
797.831	663
798.245	653.4
798.659	660.4
799.073	664.4
799.487	658
799.88	655.8
800.294	655.6
800.708	666.8
801.123	662.2
801.516	680.8
801.93	658.2
802.345	651.6
802.76	662
803.153	685.2
803.568	677.2
803.983	668.4
804.377	674.4
804.792	646.8
805.207	649.4
805.601	662.8
806.016	700.2
806.432	655
806.826	695
807.242	690
807.658	668
808.052	654.6
808.468	652.8
808.884	663
809.279	662.6
809.695	677.4
810.111	679.6
810.506	657.6
810.922	691.8
811.339	655.6
811.734	668.6
812.151	665.8
812.546	658
812.963	657.8
813.38	661.8
813.776	661.8
814.193	692.2
814.589	658.6
815.006	660.2
815.402	643.4
815.82	662
816.237	664.6
816.633	662.4
817.051	647.6
817.448	664.8
817.866	642.8
818.262	681
818.68	660
819.077	648.4
819.495	661.2
819.892	704.2
820.311	647.4
820.708	660
821.127	649.4
821.524	679.8
821.943	664.6
822.34	673.4
822.759	670.6
823.157	660
823.576	671
823.974	670.2
824.393	788
824.791	652.6
825.189	651.4
825.609	659.6
826.007	656.2
826.427	646.6
826.826	662
827.246	668
827.644	647.2
828.043	670.8
828.463	658.6
828.862	668.2
829.261	667.6
829.682	651.2
830.081	664.2
830.502	658.8
830.901	667.2
831.301	656
831.722	650.2
832.121	665.4
832.521	652.4
832.943	666.4
833.342	658.6
833.742	653.2
834.164	652.2
834.564	649.8
834.965	652.6
835.386	653
835.787	656.8
836.188	658.4
836.588	664.2
837.01	661.8
837.411	654
837.812	675.8
838.213	660.4
838.636	653.8
839.037	746.4
839.438	657.4
839.84	662.6
840.263	667
840.664	665.8
841.066	659.4
841.468	663.6
841.891	655.8
842.293	673.2
842.695	666
843.098	667.4
843.5	655.8
843.902	670.4
844.326	663.4
844.729	660.4
845.131	665.8
845.534	669
845.937	672.4
846.34	679.2
846.764	662.6
847.167	651.8
847.571	654.8
847.974	650
848.377	655
848.781	713.6
849.184	666
849.588	654.2
849.992	658.8
850.396	659.4
850.821	693.6
851.225	672
851.63	654.8
852.034	673.4
852.438	665.6
852.843	712.4
853.247	655.2
853.652	653.8
854.057	679.6
854.462	666
854.867	659.6
855.272	692.2
855.677	661.8
856.082	650.6
856.487	647.8
856.893	660.8
857.298	654.8
857.704	648
858.11	661.6
858.516	668.6
858.922	659.4
859.328	668.2
859.734	668.2
860.14	670.2
860.525	663.8
860.931	659.8
861.338	655.8
861.745	661
862.151	670
862.558	665.8
862.965	661.4
863.372	662.8
863.779	663
864.186	684.6
864.572	659
864.98	670.2
865.387	692.6
865.795	656.2
866.203	668.8
866.61	656.2
867.018	670.4
867.405	668.8
867.813	659.6
868.221	660
868.63	654.2
869.038	668.8
869.425	703.4
869.834	664
870.243	651.2
870.652	652
871.039	658.6
871.448	654
871.857	659.2
872.266	652.4
872.654	660
873.064	657.6
873.473	677
873.883	655.2
874.271	648
874.681	680.4
875.091	637
875.48	668
875.89	675.4
876.3	652
876.689	634.8
877.1	655.6
877.51	663.4
877.9	679.4
878.31	656.4
878.721	699.2
879.111	664.6
879.522	663.4
879.933	642
880.323	644
880.734	653.8
881.125	666.6
881.536	655.8
881.948	648
882.338	657.4
882.75	663.6
883.141	650.8
883.553	663.2
883.944	688.4
884.356	665.2
884.769	655.8
885.16	654.2
885.573	668.4
885.964	659.2
886.377	668
886.768	653.2
887.181	663.8
887.573	648
887.987	668.8
888.378	673.4
888.792	663.2
889.184	711.8
889.598	656.4
889.99	660.2
890.383	645.8
890.797	649.2
891.19	671.8
891.604	650
891.997	641.2
892.411	651.2
892.805	643
893.198	649.6
893.613	642.6
894.006	657
894.421	653.2
894.815	661.6
895.209	649.6
895.624	702.4
896.018	681.6
896.412	650.6
896.828	659.6
897.222	662.4
897.617	651.4
898.033	684.8
898.427	660.2
898.822	664
899.239	646.2
899.634	647.4
900.029	676.4
900.424	659
900.841	655.6
901.236	670.4
901.632	671.2
902.027	726.6
902.445	672.2
902.841	653.2
903.237	656.4
903.633	677.4
904.05	670.4
904.447	670.8
904.843	667.4
905.24	653
905.636	648.6
906.033	661.4
906.451	670
906.848	653
907.246	657.8
907.643	656
908.04	663.8
908.438	677.8
908.835	662.4
909.254	656.2
909.652	663.8
910.05	650.2
910.448	652.4
910.846	662.8
911.244	657.6
911.643	662.8
912.041	656.6
912.44	673.4
912.839	654.4
913.237	646
913.636	652.8
914.035	667.4
914.434	661.6
914.834	664.8
915.233	672.6
915.633	650.2
916.032	654.6
916.432	652.6
916.832	671.4
917.232	661.2
917.632	651.8
918.032	656.8
918.432	654.2
918.833	659.6
919.233	656
919.634	644.6
920.035	669.8
920.436	653.2
920.837	657.6
921.238	651
921.639	655.6
922.019	651.4
922.42	653
922.822	667.2
923.224	658.6
923.625	653.2
924.027	664
924.429	677.8
924.81	662.6
925.212	661.4
925.615	659.2
926.017	666.4
926.42	675.6
926.801	658.8
927.204	661
927.607	666.2
928.01	674
928.413	668.8
928.795	635.2
929.199	652.2
929.602	653.6
930.006	661.6
930.388	641.4
930.792	663.6
931.196	657.8
931.579	693
931.983	646.8
932.388	706.8
932.771	640.2
933.176	641
933.58	664.6
933.964	662.8
934.369	645
934.774	649.8
935.158	648
935.563	662.2
935.947	660.8
936.353	659.2
936.759	649.8
937.143	654.4
937.549	662.2
937.934	666.6
938.34	680.8
938.746	640.6
939.131	648.6
939.538	649.8
939.923	659.4
940.33	655
940.716	661.8
941.123	661.4
941.508	660.6
941.916	676.4
942.302	662.8
942.709	643.2
943.096	649.4
943.503	668.8
943.89	653
944.298	656.2
944.685	684.2
945.072	654.6
945.48	677.4
945.867	648.2
946.276	643
946.663	683.8
947.051	672.2
947.46	673.4
947.848	654.8
948.257	661.2
948.645	653.4
949.033	656
949.443	650
949.831	703.8
950.22	646.2
950.63	668
951.018	693.2
951.407	657
951.796	641.4
952.207	662.2
952.596	664
952.985	644.2
953.375	707.8
953.786	655
954.176	645
954.566	665.2
954.956	646
955.367	658.8
955.758	681.4
956.148	639.6
956.539	658
956.929	642
957.341	644
957.732	647.8
958.123	665
958.515	648.2
958.906	664
959.297	649
959.689	649.4
960.102	648.8
960.494	656.8
960.886	658.6
961.278	654.6
961.67	681.6
962.062	696.2
962.455	650.6
962.847	643.8
963.24	653.8
963.633	650.2
964.026	640.2
964.419	652.8
964.812	674.4
965.206	651.8
965.599	655
965.993	665
966.386	654
966.78	660.6
967.174	661.8
967.569	653.4
967.963	643.8
968.357	651.8
968.752	650.2
969.146	654.2
969.541	645.2
969.936	653
970.331	657.2
970.705	653.8
971.1	654.2
971.496	657.8
971.892	654
972.287	653.4
972.683	654.4
973.079	656.8
973.454	666
973.85	655.2
974.247	661.4
974.643	682.2
975.04	650.6
975.415	651.8
975.812	645
976.209	654.4
976.607	646.2
976.982	655.6
977.38	668.4
977.778	658.8
978.175	645.4
978.552	659
978.95	653.8
979.348	660.6
979.725	711.4
980.123	657
980.522	654.8
980.899	658.6
981.298	655.2
981.697	657
982.075	654.8
982.474	646.8
982.852	655.8
983.251	661.2
983.651	656.4
984.029	657.4
984.429	654.6
984.808	643.6
985.208	658.6
985.609	646.4
985.987	637.2
986.388	641.6
986.768	663.8
987.168	645.2
987.548	659.6
987.949	659
988.329	662.2
988.731	636
989.111	652
989.491	656.6
989.893	652
990.273	663.2
990.676	643.2
991.057	641.4
991.459	644
991.84	661.2
992.221	648
992.624	665.8
993.006	662.6
993.388	654.6
993.791	656.4
994.173	664.2
994.576	698.4
994.959	644.8
995.341	648
995.724	646.2
996.128	655.4
996.511	659.8
996.894	650.4
997.298	653.2
997.681	660.2
998.065	655
998.448	653.4
998.854	659.4
999.237	647.8
999.621	674.8
1000.01	673.8
1000.39	648.8
1000.8	643
1001.18	672.6
1001.56	661
1001.95	660
1002.33	661.6
1002.72	656
1003.13	654.2
1003.51	651.8
1003.9	649.4
1004.28	676.4
1004.67	652.4
1005.06	655.4
1005.44	695.6
1005.83	644.4
1006.21	658
1006.6	656
1006.99	676.2
1007.37	650.6
1007.76	657
1060.12	636.8
1060.51	638.2
1060.89	660
1061.28	667.4
1061.67	670.4
1062.06	649
1062.45	657.2
1062.83	652.6
1063.22	664.6
1063.61	703.4
1064	661.2
1064.39	650
1064.78	651
1065.14	672.6
1065.53	658
1065.92	648.6
1066.31	650.4
1066.7	665
1067.09	672.6
1067.46	662.6
1067.85	650.6
1068.24	653
1068.63	662.6
1069.02	645
1069.39	661
1069.78	653.6
1070.17	645.2
1070.57	643.6
1070.93	665.2
1071.33	641.4
1071.72	653.2
1072.11	644.4
1072.48	652.2
1072.87	645.4
1073.26	650.6
1073.64	650.6
1074.03	643.8
1074.4	657.2
1074.79	657.4
1075.19	654.2
1075.56	652
1075.95	651.6
1076.34	657.8
1076.72	659.2
1077.11	661.4
1077.48	676.2
1077.88	656.4
1078.25	650.8
1078.64	661
1079.02	653.8
1079.41	660.8
1079.78	652.8
1080.18	639
1080.55	731.4
1080.95	654
1081.32	646.2
1081.72	654.2
1082.09	654.2
1082.49	644
1082.86	657
1083.24	641
1083.63	640.2
1084.01	653.6
1084.38	657.2
1084.78	640.8
1085.16	664.8
1085.55	664.8
1085.93	661.4
1086.31	637
1086.7	686.8
1087.08	648
1087.46	658.4
1087.83	648.8
1088.23	657.4
1088.61	646.4
1088.99	660
1089.36	646
1089.76	647.4
1090.14	652.8
1090.52	648.4
1090.9	648.6
1091.27	660.2
1091.67	682.6
1092.05	662.4
1092.43	650.2
1092.81	659.2
1093.19	657.4
1093.57	659
1093.95	659.2
1094.35	669.2
1094.73	664.2
1095.11	647.6
1095.49	648.2
1095.87	644.8
1096.25	659.6
1096.63	662.6
1097.01	651.8
1097.39	651.8
1097.77	655.4
1098.15	658.8
1098.53	647.6
1098.91	650.8
1099.29	650.2
1099.68	667.8
1100.06	668.4
1100.44	655.8
1100.82	660.2
1101.18	662
1101.56	659.4
1101.95	651.4
1102.33	645
1102.71	651.8
1103.1	645.6
1103.48	632
1103.86	640
1104.22	659.2
1104.61	658.4
1104.99	651.8
1105.38	642.4
1105.76	659.8
1106.12	647.8
1106.51	689.4
1106.89	657.6
1107.26	647.8
1107.64	666
1108.03	649
1108.41	655.6
1108.78	654.4
1109.16	652.8
1109.55	668.2
1109.91	637.8
1110.3	638.2
1110.69	673.4
1111.05	649.6
1111.44	654.8
1111.8	658
1112.19	655.6
1112.58	661.2
1112.94	647
1113.33	657
1113.7	651.8
1114.09	650.8
1114.45	647.4
1114.84	659
1115.21	658.6
1115.6	648
1115.96	654.6
1116.35	657.4
1116.72	644.2
1117.11	661.4
1117.48	645.2
1117.85	653.2
1118.24	670.4
1118.6	644.6
1118.99	646.4
1119.36	652.8
1119.73	649.6
1120.12	652
1120.49	637.2
1120.86	663.4
1121.25	646.8
1121.62	641.8
1121.99	647.2
1122.38	665.6
1122.76	645.4
1123.13	651.6
1123.5	660.6
1123.89	657.4
1124.26	634.2
1124.63	649.6
1125	659.4
1125.4	643.8
1125.77	643.6
1126.14	628.2
1126.51	650.4
1126.88	655.2
1127.26	652.4
1127.63	629.8
1128.02	651.6
1128.4	642.2
1128.77	653.4
1129.14	645
1129.52	651.2
1129.89	653.4
1130.26	637
1130.64	643
1131.01	645.4
