#lambda/nm	C1
208.295	560
208.67	504.4
209.045	467.2
209.419	464
209.794	683.2
210.169	666.4
210.544	807.8
210.919	693
211.295	679.6
211.67	682.6
212.045	690.2
212.421	681.8
212.796	723.6
213.172	683
213.547	680.4
213.923	682.2
214.299	678.4
214.675	692.8
215.051	690.2
215.427	699.4
215.803	706.4
216.179	691.6
216.555	676.2
216.932	703.4
217.308	688
217.684	683.2
218.061	694.8
218.438	683.2
218.814	674.8
219.191	694.6
219.568	671
219.945	682.6
220.322	693.6
220.699	688.6
221.076	692.2
221.453	691.4
221.83	674
222.208	688.2
222.585	681.4
222.962	700.2
223.34	684.6
223.717	689.4
224.095	679.8
224.473	691.8
224.851	680.6
225.229	674.6
225.607	703
225.985	674.6
226.363	688.8
226.741	682.8
227.119	675.8
227.497	703.4
227.876	677
228.254	698.6
228.633	684.2
229.011	693.4
229.39	691.2
229.769	687
230.148	686.4
230.527	713.6
230.905	692
231.284	687.8
231.664	682.2
232.043	702.4
232.422	693.6
232.801	689.8
233.181	689.2
233.56	683
233.94	689.4
234.319	678.4
234.699	680.4
235.079	733.4
235.458	732.8
235.838	704.6
236.218	681.8
236.598	669.4
236.978	682.2
237.358	684.6
237.738	679.4
238.119	697.6
238.499	674
238.88	693.4
239.26	702.8
239.641	669.6
240.021	680.2
240.402	676.4
240.783	679.4
241.163	674.8
241.544	685.4
241.925	685.6
242.306	699.4
242.687	679.6
243.069	680.2
243.45	696
243.831	682.2
244.212	678.6
244.594	728
244.975	704.6
245.357	694
245.739	689
246.12	700.4
246.502	700.8
246.884	692
247.266	683.4
247.648	693.4
248.03	721.6
248.412	695.6
248.794	702.6
249.176	681.6
249.559	702.2
249.941	673
250.323	678.4
250.706	678.8
251.089	687.8
251.471	695.2
251.854	691.8
252.237	684
252.62	696.4
253.002	697.4
253.385	685.8
253.769	696.4
254.152	694.2
254.535	691.8
254.918	679.6
255.301	686.8
255.685	684
256.068	678.6
256.452	719.8
256.835	694.4
257.219	686.4
257.603	700.4
257.986	676.6
258.37	693.2
258.754	675
259.138	699.4
259.522	708.2
259.906	681.6
260.29	693.8
260.675	684.8
261.059	685.4
261.443	674.2
261.828	698
262.212	690.4
262.597	675.8
262.981	680.4
263.366	697.8
263.751	691.2
264.136	685
264.521	685.6
264.906	680
265.291	701
265.676	683.4
266.061	690.4
266.446	707.2
266.831	697.6
267.217	720.6
267.602	689
267.987	687.6
268.373	689
268.759	696.6
269.144	689.6
269.53	690.2
269.916	687.6
270.302	682.6
270.688	693.2
271.074	690.2
271.46	703.8
271.846	730.4
272.232	688.8
272.618	686.2
273.004	687.4
273.391	708
273.777	704
274.164	693.6
274.55	701.6
274.937	687.2
275.324	682
275.71	692.6
276.097	698.8
276.484	674.8
276.871	690
277.258	694.2
277.645	674.6
278.032	690.4
278.419	685.8
278.807	685.6
279.194	677.6
279.581	684
279.969	691.8
280.356	695.4
280.744	692.4
281.131	723.8
281.519	700.4
281.907	688.8
282.295	683.8
282.682	695.2
283.07	691.6
283.458	694
283.846	694.4
284.235	698.6
284.623	699.2
285.011	678.6
285.399	694.2
285.788	681.2
286.176	678.2
286.565	696.2
286.953	679.2
287.342	693.8
287.731	687.8
288.119	683.8
288.508	687.6
288.897	695.8
289.286	677.6
289.675	687
290.064	700.6
290.453	693.2
290.821	678.2
291.21	709.8
291.599	686
291.989	687.4
292.378	701
292.768	701.8
293.157	693.6
293.547	690.6
293.936	685
294.326	691.4
294.716	700.4
295.106	688.6
295.496	698
295.886	702.2
296.276	695
296.666	679.6
297.056	687
297.446	667.6
297.836	712.6
298.227	685.8
298.617	691.2
299.008	704.6
299.398	681.8
299.789	681.6
300.179	695.8
300.57	699.6
300.961	686
301.352	676.2
301.742	699.4
302.133	688.2
302.524	688
302.915	698.2
303.307	681
303.698	694
304.089	698.4
304.48	688.8
304.872	695.2
305.263	688.4
305.655	694
306.046	704.2
306.438	703.4
306.829	694.2
307.221	705.8
307.613	699
308.005	705.4
308.397	707.8
308.789	716.6
309.181	716.4
309.573	712.6
309.965	709.6
310.357	684.4
310.749	711
311.142	678
311.534	685.8
311.926	698.6
312.319	696.6
312.711	691.6
313.104	705
313.497	684
313.889	735.6
314.282	714.2
314.675	717.8
315.068	693.6
315.461	692
315.854	730
316.247	702
316.64	699.4
317.033	696
317.405	708
317.798	694.6
318.192	696.8
318.585	679.4
318.979	701.8
319.372	673.6
319.766	682.4
320.16	708.8
320.553	708.4
320.947	717.8
321.341	681
321.735	689.4
322.129	671.8
322.523	723.2
322.917	684.4
323.311	701
323.705	694
324.099	697.8
324.494	707.2
324.888	706.4
325.282	693
325.677	710.4
326.071	694.2
326.466	709.8
326.861	703.2
327.255	707.8
327.65	703.2
328.045	708.4
328.44	689
328.835	695.6
329.23	679
329.625	722.4
330.02	682.2
330.415	712
330.81	687.4
331.206	695.8
331.601	680.6
331.996	701.4
332.37	714
332.766	677.6
333.161	716.6
333.557	685.8
333.953	694.4
334.348	1011.4
334.744	683.4
335.14	690.6
335.536	680.6
335.932	705.2
336.328	692.6
336.724	703.8
337.12	688.4
337.516	704
337.913	693.6
338.309	710.4
338.705	694.6
339.102	707
339.498	687.2
339.895	705.4
340.291	681
340.688	701.8
341.085	686.4
341.481	693
341.878	691.4
342.275	716.6
342.672	687.8
343.069	693
343.466	677.8
343.842	706.6
344.239	677.8
344.636	689.8
345.033	684
345.431	694.8
345.828	693.2
346.225	692.4
346.623	724.4
347.02	691.8
347.418	702.4
347.816	709.4
348.213	675.4
348.611	699.8
349.009	683
349.407	701.4
349.805	681.8
350.203	683.6
350.601	700.2
350.999	694
351.397	776.4
351.795	684.6
352.193	700.6
352.57	702.8
352.969	699.8
353.367	682.8
353.766	676.2
354.164	690.4
354.563	699.2
354.961	690.8
355.36	691
355.759	688.6
356.158	680.8
356.557	677.6
356.956	678.2
357.355	674.6
357.754	685.4
358.153	702
358.552	716.4
358.951	684.8
359.35	703.2
359.75	685.8
360.149	676.8
360.527	675.6
360.926	679.8
361.326	685.4
361.726	682.6
362.125	670.4
362.525	691
362.925	678
363.325	685.2
363.724	682.8
364.124	688.4
364.524	669
364.924	675
365.324	691.8
365.725	666.8
366.125	690
366.525	682.2
366.904	672.2
367.304	661
367.705	706.6
368.105	706.8
368.506	680.8
368.906	682.4
369.307	674.4
369.708	691
370.108	672.8
370.509	689.8
370.91	682.6
371.311	684.2
371.712	690.2
372.113	677.8
372.514	667.6
372.894	678.6
373.295	684.4
373.696	693
374.097	691.4
374.499	716.6
374.9	687
375.301	673.8
375.703	688.4
376.105	679.4
376.506	686.2
376.908	687.4
377.309	680.4
377.711	686.4
378.113	682.2
378.493	678.2
378.895	684.4
379.297	690.4
379.699	663.8
380.102	685.8
380.504	688
380.906	678.6
381.308	708
381.71	682.2
382.113	698
382.515	686.6
382.918	690.6
383.299	680.8
383.701	696.8
384.104	687.2
384.507	664.8
384.909	681.8
385.312	671.6
385.715	671.2
386.118	683
386.521	667.8
386.924	698.4
387.327	681.6
387.709	670.8
388.112	668.6
388.515	678
388.918	675
389.322	686.4
389.725	679.8
390.129	711.8
390.532	687.4
390.936	679
391.339	671
391.743	683.4
392.125	665.6
392.529	697
392.933	695.4
393.337	675.6
393.74	679
394.144	680.2
394.548	666.4
394.953	681.4
395.357	681.8
395.761	670.8
396.144	690
396.548	680.2
396.952	682.2
397.357	685.8
397.761	673.2
398.166	678.2
398.57	686
398.975	669.6
399.379	682.2
399.763	728.6
400.168	683.4
400.572	683.8
400.977	685
401.382	695.2
401.787	700.4
402.192	703.4
402.597	694.2
403.002	671
403.386	688.2
403.791	705.8
404.197	668.4
404.602	678.6
405.007	682.8
405.413	676.6
405.818	681.8
406.224	686.2
406.608	674.6
407.014	672.4
407.42	705.2
407.825	683.6
408.231	689.4
408.637	692.2
409.043	698.8
409.449	672.6
409.834	681.6
410.24	676.4
410.646	693.2
411.052	696.2
411.458	689.6
411.865	693
412.271	690.6
412.677	684.8
413.062	700.2
413.469	674.6
413.875	723
414.282	692.6
414.689	690.8
415.095	690
415.502	677.2
415.888	690
416.294	672
416.701	730
417.108	681.2
417.515	706.4
417.923	687.6
418.33	708.8
418.715	699.4
419.123	682.4
419.53	682.2
419.937	688.2
420.345	703
420.752	676.2
421.16	701.2
421.546	688.4
421.953	689.4
422.361	668
422.769	685.2
423.177	676
423.585	711.6
423.992	700.2
424.379	698.2
424.787	694
425.195	711.6
425.603	680.4
426.011	703.2
426.419	704
426.806	692.8
427.214	692
427.623	698.2
428.031	704.6
428.44	687
428.848	710.4
429.235	694.4
429.644	699.2
430.053	687.2
430.461	705
430.87	713
431.279	695.6
431.666	684.2
432.075	692.6
432.484	696.8
432.893	677.6
433.302	708.4
433.711	743.6
434.099	685
434.508	686.4
434.918	678.4
435.327	690.6
435.737	683.6
436.125	684.8
436.534	695.2
436.944	696
437.353	686
437.763	705.6
438.173	679.8
438.561	699
438.971	679
439.381	684.6
439.791	689.6
440.201	669.8
440.589	688.6
440.999	699.6
441.409	697.8
441.819	688.4
442.23	703
442.619	704
443.029	695.6
443.439	702.8
443.85	701.2
444.26	711
444.649	715.8
445.06	694.4
445.471	693
445.881	705.4
446.292	719
446.682	720.8
447.092	690.2
447.503	766
447.914	706.4
448.325	699
448.715	698.4
449.126	702.2
449.537	704
449.948	712.6
450.338	705
450.75	715
451.161	710.2
451.572	719.2
451.984	702.4
452.374	691.2
452.786	708.4
453.197	715.8
453.609	722
453.999	694.8
454.411	685.6
454.823	720.8
455.235	712
455.647	704
456.037	714.4
456.449	692.2
456.862	720
457.274	711.4
457.665	707.4
458.077	716
458.489	738.4
458.902	712.4
459.293	709
459.705	718.8
460.118	709.6
460.53	713.4
460.921	712
461.334	718.6
461.747	706.2
462.16	722.6
462.551	717.2
462.964	727.8
463.377	702.8
463.79	720.8
464.182	727.2
464.595	716.2
465.008	717.4
465.421	720.4
465.813	709.4
466.226	720.8
466.64	705
467.053	769.4
467.445	730.4
467.859	732
468.272	716.8
468.686	725.6
469.078	713.4
469.492	701.6
469.906	716.6
470.298	732.4
470.712	714.4
471.126	779.2
471.54	701.6
471.933	710.6
472.347	720
472.761	711.2
473.175	700.6
473.568	710.6
473.982	713.2
474.397	713.8
474.79	717
475.204	719.6
475.619	718.6
476.033	730.8
476.426	727.8
476.841	714.8
477.256	744
477.649	709
478.064	712.6
478.479	713.4
478.872	718.2
479.287	700.4
479.702	709.4
480.118	713.4
480.511	714.4
480.927	710.2
481.342	719.4
481.736	721.8
482.151	708.4
482.566	730
482.96	716
483.376	733
483.792	711.4
484.186	714.2
484.602	704.8
485.017	725.2
485.412	718.4
485.827	731
486.243	713.2
486.638	749.6
487.054	724.8
487.47	733.4
487.865	707
488.281	712
488.697	696.8
489.092	711.8
489.508	717
489.925	721.2
490.32	708.6
490.736	715.4
491.153	722.8
491.548	717.2
491.964	728
492.381	704.4
492.776	718.2
493.193	713.2
493.61	721.4
494.006	707.2
494.422	721
494.84	704.2
495.235	719.2
495.652	710
496.069	710.8
496.465	698
496.883	716.6
497.3	736.8
497.696	698.8
498.113	727.8
498.509	691.2
498.927	701
499.344	695
499.741	705.2
500.158	714.6
500.576	708.6
500.973	703
501.39	702.4
501.787	699
502.205	705.8
502.623	697
503.02	690.6
503.438	702.4
503.856	702.2
504.253	708.2
504.671	701.4
505.068	696.2
505.486	690.2
505.905	724.6
506.302	717.4
506.72	718.4
507.118	694
507.536	710
507.955	709.2
508.352	698.6
508.771	712
509.169	706.6
509.587	694
510.006	706
510.404	689.2
510.823	693.6
511.221	702.6
511.64	694
512.038	710
512.457	694.8
512.877	695.2
513.275	699.6
513.694	694.6
514.092	698.8
514.512	694.6
514.91	700
515.33	694.8
515.749	702.2
516.148	696
516.568	705.2
516.966	691.4
517.386	694.6
517.785	696.8
518.205	690.2
518.603	694.4
519.024	690.2
519.444	703
519.843	709.8
520.263	717.6
520.662	706.4
521.082	690.2
521.481	699.6
521.902	694.6
522.301	702.4
522.722	701.8
523.121	693
523.542	693.6
523.963	691.4
524.362	703
524.783	699.6
525.183	694.8
525.604	699.4
526.003	679.4
526.425	687.4
526.824	692.6
527.246	698.4
527.646	702.4
528.067	691.4
528.467	688.6
528.888	683
529.289	687.6
529.71	692
530.11	694.2
530.532	676.4
530.932	677.6
531.354	678.6
531.755	726.4
532.176	691.2
532.577	688.8
532.999	679.6
533.4	689.6
533.822	699
534.223	691
534.645	684.6
535.046	686.4
535.468	683.2
535.869	701.6
536.292	677.2
536.693	725.6
537.115	678.2
537.516	685.6
537.939	680.6
538.34	698.2
538.742	702.6
539.165	681.2
539.566	681
539.989	664.4
540.391	673.4
540.814	680.8
541.216	689
541.639	690
542.041	692.6
542.464	670
542.866	679.4
543.268	680.2
543.691	685.6
544.093	685.6
544.517	712.4
544.919	675.2
545.343	714
545.745	670
546.147	683.8
546.571	686.4
546.974	672.4
547.398	682
547.8	697.4
548.224	677.6
548.627	671.8
549.03	684.4
549.454	671.4
549.857	674.2
550.281	674.6
550.684	681.8
551.087	691
551.512	683.6
551.915	694.6
552.34	678.4
552.743	672
553.146	685.6
553.571	688
553.975	707.4
554.399	662.6
554.803	726.2
555.207	674
555.632	668.8
556.036	685.4
556.461	669.2
556.865	677.2
557.268	676.6
557.694	683.2
558.098	686.6
558.502	688.6
558.927	667.6
559.332	674.6
559.736	682.6
560.162	688.6
560.566	676
560.992	690.2
561.396	673.6
561.801	672
562.227	669.2
562.631	677.8
563.036	674.6
563.462	679
563.867	680
564.272	664.2
564.698	686.2
565.103	653.2
565.508	693.6
565.935	679
566.34	675.6
566.745	686.2
567.172	669.6
567.577	692.8
567.982	690.8
568.409	680.6
568.815	667.2
569.22	671.8
569.626	678.6
570.053	656.6
570.459	680.8
570.865	680.4
571.292	685
571.698	679.4
572.104	660
572.531	678.2
572.937	675.8
573.343	672.4
573.75	675.8
574.177	677.2
574.583	670.8
574.99	676
575.396	682.8
575.824	675.4
576.231	673.2
576.637	669.2
577.065	701.2
577.472	670.8
577.879	674.6
578.286	686.2
578.714	667
579.121	667.2
579.528	679.2
579.935	687.8
580.364	677
580.771	662.4
581.178	670.6
581.585	677.8
582.014	674.2
582.421	661.2
582.829	677
583.236	677.6
583.644	665
584.073	664.2
584.481	676.6
584.889	669.4
585.296	680.8
585.726	671.6
586.134	665.2
586.542	664.6
586.95	690.4
587.358	659.6
587.787	679.6
588.196	665.4
588.604	667.8
589.012	666
589.421	657.6
589.851	667.6
590.259	674.2
590.668	673
591.076	707.8
591.485	654.6
591.894	669.6
592.324	683.6
592.733	682.6
593.142	654
593.551	665
593.96	710.6
594.369	655.4
594.8	665
595.209	671.2
595.618	659.2
596.028	668.6
596.437	656.8
596.847	669.2
597.256	664.2
597.687	674.6
598.097	672.8
598.507	655
598.917	675.6
599.327	669.6
599.736	667.4
600.146	673.4
600.556	667.8
600.988	690.4
601.398	670.6
601.808	679.2
602.219	654.6
602.629	668.4
603.039	666.8
603.45	697
603.86	675.4
604.271	688.6
604.703	672.6
605.114	674
605.525	668
605.935	674
606.346	697.6
606.757	671
607.168	665.8
607.579	667.8
607.99	686.6
608.402	659.2
608.813	679
609.224	663.8
609.636	653.2
610.047	661
610.48	658
610.892	687.2
611.303	671
611.715	654.8
612.127	658.2
612.539	664
612.95	669.2
613.362	663
613.774	655.2
614.186	662
614.599	665.4
615.011	679.4
615.423	666.4
615.835	662.2
616.248	649.8
616.66	673
617.073	659.4
617.485	668.2
617.898	668.8
618.311	675.6
618.723	661.6
619.136	701.8
619.549	681.6
619.962	687.8
620.375	658.6
620.788	668.8
621.201	660.8
621.614	679
622.028	669.6
622.441	667.2
622.854	680
623.268	665
623.681	678
624.095	671.6
624.509	678
624.922	680
625.336	663.2
625.728	670.4
626.142	665.8
626.556	683
626.97	677.6
627.384	666.6
627.799	674.4
628.213	687.4
628.627	673.8
629.041	665.8
629.456	676.8
629.87	665.6
630.285	675
630.699	674.2
631.093	665.8
631.507	675.8
631.922	670.2
632.337	682.8
632.752	652.2
633.167	661.4
633.582	655.8
633.997	660.2
634.412	655.2
634.806	670.4
635.221	655.2
635.637	678
636.052	654
636.468	658.8
636.883	690
637.299	662
637.715	651.4
638.109	661.2
638.525	659.8
638.941	674.2
639.357	670.2
639.773	673.8
640.189	662.8
640.584	663.6
641	657.8
641.416	654.6
641.832	658.6
642.249	662.6
642.665	670.6
643.06	668
643.477	676.8
643.894	643.4
644.31	659.2
644.727	660.2
645.123	659
645.54	655.6
645.957	659
646.374	686.2
646.77	671.2
647.187	697.2
647.604	655.4
648.021	654.2
648.439	654.8
648.835	675.6
649.252	668.6
649.67	662
650.088	670.8
650.484	673.4
650.902	674.8
651.32	674.8
651.738	667.4
652.134	666.4
652.552	683.6
652.971	674.8
653.389	660
653.786	677.4
654.204	689.2
654.622	663.8
655.019	670.8
655.438	673.2
655.857	672.2
656.275	672.8
656.673	662.8
657.091	749
657.51	661.8
657.908	678.8
658.327	679.8
658.746	657.4
659.144	670.2
659.563	676.2
659.982	665.6
660.38	655
660.8	662
661.219	681
661.617	668.8
662.037	664.8
662.457	682.2
662.855	650.8
663.275	701.4
663.695	670
664.094	664
664.514	667.4
664.934	669.4
665.333	677.2
665.753	660.8
666.152	649.6
666.572	659.6
666.993	677
667.392	670.6
667.812	667.2
668.212	666.6
668.632	676.4
669.053	655.8
669.453	670.6
669.874	667.2
670.273	669.2
670.694	651.2
671.116	675.8
671.515	666.6
671.937	666
672.337	660.8
672.758	661
673.158	675.6
673.58	665.6
673.98	661.8
674.402	681.4
674.824	660
675.224	664
675.646	651.8
676.047	660.4
676.469	669.2
676.869	673
677.292	669
677.693	658
678.115	652.6
678.516	665.8
678.939	664
679.34	664.4
679.762	677.2
680.164	674
680.586	660.8
680.988	668.4
681.411	692.6
681.812	671
682.236	661.8
682.637	657.4
683.061	654.4
683.462	668.8
683.864	669
684.288	671
684.69	655.8
685.114	667.6
685.516	680.8
685.94	659
686.342	673.8
686.766	657
687.168	657.6
687.571	681
687.995	665.4
688.398	654.2
688.822	661.8
689.225	683.8
689.628	693.8
690.052	665.8
690.456	668.2
690.88	663.2
691.284	661.8
691.687	674.4
692.112	654
692.515	655.4
692.919	668.2
693.344	670
693.747	655.6
694.173	661.2
694.577	673.4
694.98	669
695.406	659.2
695.81	667.8
696.214	668.2
696.64	666.6
697.044	663.4
697.448	673.2
697.874	664.4
698.279	668.2
698.684	650
699.11	658.8
699.514	655.6
699.919	658.6
700.324	656.4
700.75	661.4
701.156	667.6
701.561	668.4
701.987	660.8
702.393	673.6
702.798	670.6
703.203	663
703.63	659.2
704.036	649.4
704.442	651
704.847	649
705.274	667.4
705.68	669.4
706.086	684.6
706.492	658.4
706.92	662
707.326	680.4
707.732	663.8
708.139	647.2
708.545	657.8
708.973	655.8
709.38	658.6
709.786	650.4
710.193	685.4
710.6	661
711.028	650.2
711.435	664.4
711.842	663
712.249	650.8
712.656	666
713.064	676.2
713.492	648.8
713.9	655.2
714.307	661.4
714.715	666.4
715.123	664.8
715.53	662.2
715.938	676.4
716.367	662.6
716.775	659.2
717.184	649.8
717.592	660.6
718	678.4
718.408	697
718.816	707.8
719.225	659.4
719.633	669.6
720.042	652.8
720.472	661.4
720.881	689.6
721.29	657.2
721.699	653.6
722.108	675.8
722.517	669.2
722.926	659.2
723.335	678.2
723.744	663.2
724.154	669.4
724.563	670.2
724.973	660.4
725.382	657.8
725.792	658.4
726.202	651
726.612	687.4
727.022	659.2
727.432	657.8
779.813	649.6
780.223	710.8
780.634	655.4
781.044	653.6
781.454	660.4
781.865	672.6
782.276	657.2
782.686	671.4
783.097	661.2
783.508	661.2
783.919	661.2
784.33	669.2
784.741	670.6
785.152	653.4
785.563	649.6
785.974	656
786.386	666.8
786.776	658.8
787.188	656.4
787.599	647.2
788.011	663.8
788.423	661.8
788.835	657
789.247	650
789.659	654.6
790.071	654.8
790.483	698
790.874	659.8
791.286	662.8
791.699	650.8
792.111	665
792.524	661.4
792.937	655.4
793.349	660.8
793.741	648.6
794.154	643.8
794.567	686.4
794.98	652.6
795.393	647.2
795.785	672.4
796.198	651.8
796.612	666.2
797.026	657.8
797.439	646.4
797.831	651.4
798.245	636.2
798.659	653.6
799.073	654.4
799.487	650
799.88	663.6
800.294	658
800.708	653.6
801.123	656
801.516	682.2
801.93	647
802.345	646
802.76	657.2
803.153	673.6
803.568	673
803.983	668.2
804.377	654.8
804.792	645.6
805.207	647
805.601	671.6
806.016	695
806.432	654
806.826	692.6
807.242	673.8
807.658	666.6
808.052	659.4
808.468	650
808.884	649.8
809.279	662.2
809.695	672.4
810.111	673.4
810.506	671.2
810.922	684.4
811.339	656
811.734	675.6
812.151	657
812.546	660
812.963	661.4
813.38	666.2
813.776	660.4
814.193	684.8
814.589	643.6
815.006	650
815.402	654.2
815.82	657.4
816.237	662
816.633	660.6
817.051	657.8
817.448	665
817.866	654.8
818.262	684.8
818.68	659.2
819.077	650.4
819.495	648.6
819.892	698.6
820.311	659.4
820.708	660.8
821.127	657.8
821.524	668.4
821.943	664.2
822.34	672.8
822.759	664.6
823.157	653.6
823.576	671.8
823.974	663.4
824.393	799.6
824.791	655
825.189	659
825.609	654.4
826.007	666.8
826.427	639.8
826.826	653.2
827.246	655.6
827.644	638.2
828.043	663
828.463	654.4
828.862	671.2
829.261	664.6
829.682	643.8
830.081	670.6
830.502	651.8
830.901	660.2
831.301	651.6
831.722	650
832.121	662.8
832.521	644.4
832.943	655.4
833.342	658.2
833.742	654.4
834.164	659.2
834.564	647.2
834.965	660.8
835.386	661.2
835.787	654.8
836.188	655.2
836.588	661.6
837.01	656.8
837.411	649.2
837.812	664.4
838.213	674.4
838.636	650
839.037	740
839.438	658.6
839.84	659
840.263	669.2
840.664	666
841.066	658.4
841.468	660.6
841.891	655
842.293	667.6
842.695	664.6
843.098	673.2
843.5	667
843.902	649.6
844.326	661.4
844.729	662.2
845.131	669
845.534	658
845.937	670.2
846.34	680.6
846.764	663.2
847.167	661.6
847.571	644
847.974	657.8
848.377	653.8
848.781	724.8
849.184	670.6
849.588	663.4
849.992	650.2
850.396	658.6
850.821	679.8
851.225	660.4
851.63	653.2
852.034	674.8
852.438	656.2
852.843	802.2
853.247	643.4
853.652	661.6
854.057	682.2
854.462	658.2
854.867	658
855.272	679.4
855.677	659.6
856.082	649.8
856.487	652.8
856.893	657.8
857.298	651
857.704	654.4
858.11	667.2
858.516	657
858.922	654.8
859.328	670.4
859.734	669
860.14	664.6
860.525	661.6
860.931	638
861.338	654.6
861.745	667.4
862.151	669.2
862.558	657.2
862.965	648.6
863.372	648.4
863.779	653
864.186	681.8
864.572	649.6
864.98	671.6
865.387	685.6
865.795	643.6
866.203	660.6
866.61	642
867.018	668.8
867.405	660
867.813	657.6
868.221	660.6
868.63	652.8
869.038	666.2
869.425	701.6
869.834	656.8
870.243	646
870.652	655.2
871.039	659.6
871.448	655.2
871.857	665.2
872.266	660.2
872.654	662
873.064	654.8
873.473	667
873.883	642
874.271	642.6
874.681	663.8
875.091	642
875.48	663.8
875.89	684.2
876.3	651.4
876.689	648.2
877.1	657.4
877.51	663.2
877.9	687.6
878.31	651.6
878.721	684.6
879.111	664.4
879.522	658.4
879.933	649.2
880.323	654.4
880.734	646.2
881.125	664.8
881.536	647.2
881.948	646
882.338	658.8
882.75	666.2
883.141	644
883.553	667.6
883.944	688.6
884.356	665.2
884.769	649.4
885.16	659.4
885.573	655.2
885.964	646.8
886.377	658
886.768	648.4
887.181	659
887.573	650.2
887.987	665.4
888.378	662.6
888.792	666.8
889.184	707.2
889.598	650
889.99	654.4
890.383	651.2
890.797	640.4
891.19	665.6
891.604	651.2
891.997	644.8
892.411	643.4
892.805	650
893.198	650.6
893.613	641.8
894.006	655.2
894.421	644.8
894.815	652.2
895.209	648.6
895.624	699.6
896.018	676
896.412	660.8
896.828	646.4
897.222	663
897.617	649
898.033	671.8
898.427	654.8
898.822	652.2
899.239	644.2
899.634	652.4
900.029	673.4
900.424	653.2
900.841	644
901.236	660.2
901.632	660.4
902.027	721.2
902.445	665.4
902.841	657.6
903.237	656.2
903.633	663
904.05	666.2
904.447	660.6
904.843	666.6
905.24	657.2
905.636	649.4
906.033	653.6
906.451	670.2
906.848	644.4
907.246	652.6
907.643	663.6
908.04	667.4
908.438	678.4
908.835	665.2
909.254	653.4
909.652	662.4
910.05	650
910.448	651.6
910.846	661.4
911.244	651.4
911.643	660.8
912.041	650.4
912.44	676.8
912.839	650.4
913.237	656.4
913.636	651.6
914.035	663.2
914.434	652.2
914.834	669.4
915.233	669.8
915.633	651.6
916.032	639.8
916.432	652.6
916.832	676.2
917.232	650.8
917.632	649.4
918.032	660.4
918.432	659.8
918.833	646
919.233	658
919.634	640.2
920.035	662.6
920.436	648.8
920.837	658.8
921.238	654.2
921.639	657.6
922.019	663.8
922.42	664.8
922.822	654
923.224	659.6
923.625	647.2
924.027	654.6
924.429	673
924.81	656.6
925.212	664
925.615	661.4
926.017	658.2
926.42	666
926.801	662.8
927.204	663.4
927.607	656.4
928.01	664.2
928.413	658.6
928.795	645.2
929.199	652.6
929.602	645.2
930.006	644.8
930.388	651
930.792	672.2
931.196	655.4
931.579	682.8
931.983	654.8
932.388	706.2
932.771	651.2
933.176	646.4
933.58	652
933.964	659.2
934.369	642.8
934.774	657.2
935.158	656
935.563	658.8
935.947	654.4
936.353	661
936.759	645.2
937.143	659
937.549	660.8
937.934	670.6
938.34	674
938.746	650.6
939.131	650.4
939.538	651
939.923	661.2
940.33	647.2
940.716	654.6
941.123	669
941.508	665.8
941.916	678
942.302	664.4
942.709	649.2
943.096	643.8
943.503	665.2
943.89	651.8
944.298	645.8
944.685	683.4
945.072	645.6
945.48	673.2
945.867	647.6
946.276	650.4
946.663	684.6
947.051	674.6
947.46	658
947.848	659
948.257	649.2
948.645	661.4
949.033	654.2
949.443	647.6
949.831	704
950.22	649
950.63	661.2
951.018	692
951.407	658.2
951.796	651.2
952.207	663
952.596	663.4
952.985	643
953.375	699.6
953.786	665
954.176	647.2
954.566	670.2
954.956	646.8
955.367	644.8
955.758	669.6
956.148	638.6
956.539	659.4
956.929	642
957.341	639.2
957.732	654.6
958.123	668.8
958.515	637.4
958.906	662.8
959.297	654.2
959.689	649.4
960.102	646.8
960.494	656
960.886	650.2
961.278	649.2
961.67	677.6
962.062	700
962.455	642.6
962.847	642.2
963.24	658.4
963.633	654.6
964.026	637.2
964.419	649.4
964.812	661.2
965.206	645.6
965.599	658
965.993	644.6
966.386	645.4
966.78	660.6
967.174	664
967.569	650.6
967.963	648.6
968.357	640.8
968.752	640.6
969.146	646.4
969.541	645.8
969.936	653.6
970.331	661.2
970.705	650
971.1	642
971.496	661.4
971.892	646
972.287	651.4
972.683	653.2
973.079	647.2
973.454	666
973.85	651.4
974.247	652
974.643	682.4
975.04	650.2
975.415	647.4
975.812	645
976.209	655.2
976.607	646.2
976.982	661.4
977.38	678.6
977.778	660
978.175	658.6
978.552	661.2
978.95	655.4
979.348	666.6
979.725	706
980.123	651.4
980.522	647
980.899	654.6
981.298	646.6
981.697	660.2
982.075	651
982.474	645.8
982.852	658.8
983.251	658
983.651	649.8
984.029	660.8
984.429	653.6
984.808	641
985.208	654.2
985.609	645.8
985.987	637.2
986.388	650.6
986.768	651
987.168	644.4
987.548	658.4
987.949	652.8
988.329	661.6
988.731	634.4
989.111	650.2
989.491	651.8
989.893	652
990.273	662.6
990.676	644.2
991.057	639.8
991.459	658.2
991.84	658.4
992.221	649.6
992.624	670.2
993.006	651.6
993.388	653.8
993.791	656.8
994.173	659.2
994.576	682.4
994.959	640.6
995.341	646.2
995.724	642.8
996.128	652.8
996.511	655.8
996.894	650.2
997.298	639
997.681	653.6
998.065	652.6
998.448	641.2
998.854	665.8
999.237	657.2
999.621	663.6
1000.01	661.8
1000.39	644.2
1000.8	642
1001.18	660.8
1001.56	661
1001.95	660.2
1002.33	659.4
1002.72	646.2
1003.13	652.6
1003.51	645.8
1003.9	648.2
1004.28	672.4
1004.67	649.8
1005.06	656.8
1005.44	686.6
1005.83	641
1006.21	658.4
1006.6	645.2
1006.99	664
1007.37	653.8
1007.76	656.4
1060.12	648.4
1060.51	652.2
1060.89	656
1061.28	659.4
1061.67	663.4
1062.06	664
1062.45	657.6
1062.83	643.2
1063.22	670.8
1063.61	697.6
1064	654
1064.39	646.8
1064.78	658.4
1065.14	666.6
1065.53	654.8
1065.92	650.6
1066.31	644
1066.7	658.6
1067.09	661.4
1067.46	657.4
1067.85	654.2
1068.24	655.6
1068.63	666.4
1069.02	644.2
1069.39	656
1069.78	645.6
1070.17	648.4
1070.57	644.2
1070.93	655.2
1071.33	654.2
1071.72	651.2
1072.11	641.8
1072.48	652.4
1072.87	652.8
1073.26	648.4
1073.64	631
1074.03	638.2
1074.4	652
1074.79	642
1075.19	649.2
1075.56	663.2
1075.95	650
1076.34	653.6
1076.72	649.2
1077.11	657.4
1077.48	670
1077.88	661.4
1078.25	659.4
1078.64	655
1079.02	654.4
1079.41	656.4
1079.78	643.4
1080.18	647.2
1080.55	724.2
1080.95	641.2
1081.32	642.8
1081.72	651.6
1082.09	648.2
1082.49	642.2
1082.86	648
1083.24	640.2
1083.63	641.8
1084.01	650
1084.38	658.8
1084.78	648
1085.16	645.8
1085.55	674.2
1085.93	668.4
1086.31	647
1086.7	679.8
1087.08	652.4
1087.46	645.4
1087.83	642
1088.23	660.6
1088.61	647.8
1088.99	656.6
1089.36	646.4
1089.76	650.6
1090.14	652.2
1090.52	653.4
1090.9	644.8
1091.27	656.8
1091.67	672
1092.05	653
1092.43	648.4
1092.81	669
1093.19	659.4
1093.57	644.8
1093.95	648
1094.35	664.4
1094.73	668.2
1095.11	647.2
1095.49	649.8
1095.87	651.2
1096.25	660
1096.63	662.2
1097.01	658.4
1097.39	663.4
1097.77	651.2
1098.15	648.2
1098.53	640.6
1098.91	647
1099.29	642.4
1099.68	670.6
1100.06	664.4
1100.44	663.6
1100.82	663.4
1101.18	661.2
1101.56	644.6
1101.95	652.4
1102.33	653
1102.71	659.6
1103.1	640.2
1103.48	640
1103.86	640.4
1104.22	650.4
1104.61	643.2
1104.99	635.6
1105.38	640.8
1105.76	649.2
1106.12	648.6
1106.51	685.6
1106.89	662.6
1107.26	653.8
1107.64	657.2
1108.03	639.4
1108.41	648
1108.78	645
1109.16	656.8
1109.55	661.4
1109.91	637.6
1110.3	638.8
1110.69	662.2
1111.05	642
1111.44	648.2
1111.8	644.2
1112.19	650.8
1112.58	656
1112.94	640.4
1113.33	645.8
1113.7	633
1114.09	640.2
1114.45	632.4
1114.84	655.4
1115.21	662.2
1115.6	635.4
1115.96	649
1116.35	658.8
1116.72	650.4
1117.11	655.4
1117.48	632.8
1117.85	654.8
1118.24	666.4
1118.6	645
1118.99	643.8
1119.36	657.4
1119.73	649
1120.12	653.4
1120.49	642.2
1120.86	653
1121.25	638.4
1121.62	639.8
1121.99	648
1122.38	663.8
1122.76	651.8
1123.13	652.4
1123.5	656.2
1123.89	658.6
1124.26	642.6
1124.63	655.2
1125	652.2
1125.4	638.6
1125.77	643.8
1126.14	630.2
1126.51	645.2
1126.88	650.6
1127.26	649.2
1127.63	640.6
1128.02	647.6
1128.4	633.8
1128.77	647
1129.14	638
1129.52	651.8
1129.89	648.6
1130.26	649.2
1130.64	645.8
1131.01	648.4
