#lambda/nm	C1
208.295	545.6
208.67	492
209.045	454.6
209.419	449.8
209.794	693.6
210.169	661.2
210.544	805
210.919	689.6
211.295	682.2
211.67	682.6
212.045	688
212.421	687.4
212.796	739.4
213.172	688.4
213.547	684.4
213.923	699.6
214.299	691.8
214.675	707
215.051	694.8
215.427	697.8
215.803	715.6
216.179	691
216.555	680
216.932	705.2
217.308	689
217.684	694.2
218.061	692.8
218.438	694.8
218.814	676.6
219.191	700.2
219.568	686.4
219.945	683.6
220.322	683.8
220.699	701
221.076	685.8
221.453	692.2
221.83	682.8
222.208	687.6
222.585	690.8
222.962	688.6
223.34	689.2
223.717	696.2
224.095	692.6
224.473	695.6
224.851	681.4
225.229	668.2
225.607	699
225.985	679.6
226.363	684.4
226.741	681.2
227.119	687.4
227.497	702.6
227.876	681.4
228.254	702
228.633	691.2
229.011	684.6
229.39	695.8
229.769	689.4
230.148	693.6
230.527	711.2
230.905	689.2
231.284	694.2
231.664	689.6
232.043	700.8
232.422	690.2
232.801	688.4
233.181	696.2
233.56	685.2
233.94	685.2
234.319	679
234.699	685.6
235.079	734.8
235.458	730.4
235.838	706.8
236.218	684
236.598	678
236.978	678.8
237.358	686.2
237.738	676.4
238.119	696.6
238.499	677.4
238.88	701.6
239.26	710.4
239.641	678.8
240.021	687.8
240.402	686.4
240.783	686.2
241.163	689
241.544	694.2
241.925	691.4
242.306	707.2
242.687	688
243.069	680.4
243.45	706.2
243.831	687.2
244.212	681.4
244.594	743
244.975	702.6
245.357	691.8
245.739	687.8
246.12	690.2
246.502	704.8
246.884	688.4
247.266	677.8
247.648	698.8
248.03	717.8
248.412	692.8
248.794	704
249.176	679.6
249.559	693.2
249.941	689.6
250.323	673.8
250.706	684.2
251.089	692.6
251.471	689.8
251.854	693.2
252.237	688.4
252.62	694
253.002	691.4
253.385	682.4
253.769	706.2
254.152	681.6
254.535	700.2
254.918	686
255.301	685.6
255.685	688.4
256.068	681.2
256.452	716.2
256.835	702.2
257.219	704.2
257.603	706.2
257.986	686.4
258.37	688
258.754	683.2
259.138	703.4
259.522	709.4
259.906	691.8
260.29	691.2
260.675	691.4
261.059	694.8
261.443	676.4
261.828	704
262.212	696.2
262.597	684.2
262.981	688.8
263.366	700.2
263.751	694.8
264.136	685.4
264.521	693.6
264.906	688
265.291	707.6
265.676	688.8
266.061	700.6
266.446	710.2
266.831	683.2
267.217	718.2
267.602	692.2
267.987	696.8
268.373	692.4
268.759	707.8
269.144	702.6
269.53	688.8
269.916	684.2
270.302	693
270.688	694.6
271.074	694.8
271.46	704.8
271.846	727.8
272.232	693.8
272.618	689.6
273.004	689
273.391	702.6
273.777	701
274.164	694.6
274.55	716.6
274.937	688.8
275.324	685.4
275.71	692.2
276.097	706.8
276.484	677.2
276.871	694.6
277.258	699.2
277.645	671.4
278.032	693.2
278.419	685.8
278.807	699.8
279.194	691.6
279.581	680.8
279.969	691.8
280.356	697.2
280.744	689
281.131	724
281.519	706.2
281.907	687
282.295	685
282.682	706.8
283.07	700.6
283.458	703.2
283.846	702.4
284.235	711.2
284.623	705.2
285.011	679
285.399	693.4
285.788	690
286.176	676
286.565	702.6
286.953	686
287.342	681.4
287.731	684
288.119	686.6
288.508	688.2
288.897	694.4
289.286	679.2
289.675	691.8
290.064	707.4
290.453	682.4
290.821	692.4
291.21	718.6
291.599	690.2
291.989	696
292.378	709
292.768	714
293.157	703.4
293.547	701.8
293.936	687.4
294.326	692.4
294.716	691.4
295.106	691.2
295.496	700.6
295.886	699.4
296.276	693
296.666	684.6
297.056	687
297.446	682
297.836	714.8
298.227	699
298.617	692.4
299.008	704.2
299.398	685.2
299.789	690.6
300.179	703
300.57	712.2
300.961	693.2
301.352	686.2
301.742	699.8
302.133	687.4
302.524	695.6
302.915	700
303.307	679.8
303.698	699.8
304.089	688.6
304.48	691.6
304.872	696.4
305.263	688.2
305.655	686.6
306.046	702.4
306.438	695.6
306.829	694.2
307.221	713.6
307.613	701.4
308.005	705
308.397	708.6
308.789	721.4
309.181	716.8
309.573	717.2
309.965	709.6
310.357	695
310.749	704.2
311.142	681
311.534	684.2
311.926	706.6
312.319	701
312.711	688.4
313.104	713.6
313.497	691.2
313.889	726.8
314.282	707.8
314.675	727.2
315.068	704.8
315.461	705.4
315.854	726.8
316.247	701.6
316.64	695.6
317.033	700.4
317.405	703.4
317.798	690.4
318.192	693.6
318.585	689
318.979	696.6
319.372	691
319.766	686.8
320.16	704.6
320.553	715.4
320.947	722.6
321.341	700.6
321.735	698.4
322.129	683.4
322.523	719.4
322.917	686.4
323.311	713.6
323.705	708
324.099	705.6
324.494	712.6
324.888	707.8
325.282	696.2
325.677	710.4
326.071	702.2
326.466	709.4
326.861	706.4
327.255	705.6
327.65	713.4
328.045	718
328.44	700.6
328.835	697.2
329.23	683.6
329.625	724.6
330.02	680
330.415	717.2
330.81	686.6
331.206	701
331.601	689.2
331.996	701
332.37	713.6
332.766	677.8
333.161	715
333.557	687.4
333.953	685.8
334.348	957
334.744	691.4
335.14	689.6
335.536	690.4
335.932	703.4
336.328	696.4
336.724	698.4
337.12	688.4
337.516	701.8
337.913	702.2
338.309	706.4
338.705	695.2
339.102	706.6
339.498	693.4
339.895	713.8
340.291	681.4
340.688	706.4
341.085	681
341.481	694.6
341.878	692.4
342.275	718.4
342.672	687.8
343.069	694.6
343.466	685
343.842	704.4
344.239	683
344.636	687.2
345.033	685.8
345.431	688.6
345.828	687.6
346.225	679.4
346.623	745.8
347.02	691.8
347.418	699.4
347.816	703.2
348.213	682.6
348.611	695.2
349.009	690.6
349.407	707.8
349.805	675.6
350.203	677.4
350.601	707.6
350.999	688.8
351.397	767.2
351.795	686.2
352.193	694.6
352.57	697.8
352.969	706
353.367	678.8
353.766	679
354.164	690
354.563	702
354.961	690.2
355.36	677.4
355.759	687.2
356.158	682
356.557	683.6
356.956	686.4
357.355	679.6
357.754	693.6
358.153	690.6
358.552	724.6
358.951	691.8
359.35	706
359.75	688.4
360.149	672.8
360.527	673.4
360.926	676.4
361.326	691
361.726	686.6
362.125	680.6
362.525	698
362.925	682.2
363.325	688.2
363.724	694.2
364.124	682.8
364.524	685
364.924	686.8
365.324	700.2
365.725	669.6
366.125	694
366.525	692.6
366.904	678
367.304	661
367.705	706.2
368.105	708
368.506	683.8
368.906	685.6
369.307	687.6
369.708	688.6
370.108	669.4
370.509	696.4
370.91	687
371.311	696.4
371.712	698.4
372.113	682.4
372.514	668.8
372.894	679.2
373.295	678.8
373.696	694.4
374.097	697.6
374.499	721.2
374.9	687.4
375.301	680.8
375.703	697.8
376.105	672.8
376.506	691
376.908	689.4
377.309	684.6
377.711	692.4
378.113	672.4
378.493	688.8
378.895	678.4
379.297	691.8
379.699	670.2
380.102	686.8
380.504	687.2
380.906	677
381.308	719.2
381.71	682.8
382.113	697.8
382.515	692
382.918	686.6
383.299	690.2
383.701	694
384.104	692.2
384.507	664
384.909	690
385.312	674.4
385.715	676.8
386.118	689.4
386.521	671.2
386.924	697
387.327	678.6
387.709	679.2
388.112	663.6
388.515	676.2
388.918	685.6
389.322	689
389.725	678.8
390.129	714.4
390.532	690.2
390.936	684.6
391.339	676.6
391.743	689.8
392.125	676.2
392.529	689.2
392.933	703.2
393.337	681.6
393.74	687.4
394.144	688.4
394.548	684.4
394.953	688.8
395.357	688.8
395.761	681.6
396.144	683.4
396.548	682.2
396.952	679.6
397.357	678.2
397.761	680
398.166	683.6
398.57	679.6
398.975	678.2
399.379	685.4
399.763	744.2
400.168	693.4
400.572	683.8
400.977	681.6
401.382	715.2
401.787	698.2
402.192	712.2
402.597	703.2
403.002	685.8
403.386	698
403.791	700.2
404.197	688.6
404.602	689.8
405.007	691.8
405.413	684.4
405.818	683.2
406.224	673.8
406.608	681.4
407.014	674.4
407.42	714
407.825	678.6
408.231	678.8
408.637	685.6
409.043	694.6
409.449	678
409.834	676
410.24	677.6
410.646	690.8
411.052	695.2
411.458	693
411.865	701.2
412.271	691
412.677	684.4
413.062	689.2
413.469	675.6
413.875	714.8
414.282	701.8
414.689	683.8
415.095	696.4
415.502	679.2
415.888	696.2
416.294	681.4
416.701	739.8
417.108	673.8
417.515	691.2
417.923	677.6
418.33	703.4
418.715	695.2
419.123	687.4
419.53	674.8
419.937	694.2
420.345	703.4
420.752	682.4
421.16	692.6
421.546	680
421.953	691.4
422.361	669.4
422.769	691.8
423.177	673.8
423.585	713.6
423.992	703.8
424.379	695.2
424.787	698.2
425.195	696.4
425.603	692.2
426.011	702.4
426.419	705.2
426.806	691.4
427.214	688.8
427.623	705.8
428.031	712.4
428.44	697.2
428.848	697.4
429.235	706.2
429.644	695
430.053	690.6
430.461	704.8
430.87	723.4
431.279	702.8
431.666	689.2
432.075	693.6
432.484	692.6
432.893	690.6
433.302	721.6
433.711	731.6
434.099	691.2
434.508	677.6
434.918	678.8
435.327	690
435.737	689.4
436.125	690.2
436.534	698.4
436.944	679.4
437.353	688.4
437.763	704.2
438.173	678.2
438.561	699.4
438.971	671.4
439.381	682.8
439.791	690.8
440.201	656
440.589	687.4
440.999	687.4
441.409	705.8
441.819	681.4
442.23	695.2
442.619	702
443.029	689.8
443.439	691.4
443.85	704.8
444.26	708.2
444.649	698.6
445.06	698
445.471	688.6
445.881	700.6
446.292	712.4
446.682	721.6
447.092	689
447.503	746.8
447.914	698
448.325	704
448.715	692
449.126	688.6
449.537	701.6
449.948	695.6
450.338	699
450.75	703.8
451.161	701.6
451.572	706.4
451.984	692.8
452.374	669.8
452.786	694
453.197	701.2
453.609	702.2
453.999	683.8
454.411	692
454.823	706
455.235	703
455.647	689.2
456.037	700.2
456.449	674.4
456.862	697.6
457.274	695
457.665	687.4
458.077	698.4
458.489	734.8
458.902	698.4
459.293	703
459.705	700.4
460.118	695.8
460.53	701
460.921	700.2
461.334	700
461.747	705.2
462.16	708.6
462.551	711.6
462.964	704
463.377	684.6
463.79	698.8
464.182	712.4
464.595	698.4
465.008	699.4
465.421	708.8
465.813	692.2
466.226	704.6
466.64	694.2
467.053	755.4
467.445	720
467.859	725.2
468.272	704
468.686	718.8
469.078	707.6
469.492	684.4
469.906	703.8
470.298	712
470.712	694.6
471.126	771.2
471.54	682.6
471.933	691.2
472.347	704
472.761	696.2
473.175	694
473.568	703.6
473.982	692.2
474.397	700.2
474.79	700.8
475.204	703
475.619	701.8
476.033	703.6
476.426	697
476.841	686.2
477.256	724.2
477.649	697.8
478.064	688.2
478.479	684.4
478.872	697.6
479.287	678
479.702	689.8
480.118	696.8
480.511	693.2
480.927	700.4
481.342	692.4
481.736	706.8
482.151	693.2
482.566	718
482.96	703.4
483.376	716.4
483.792	684.6
484.186	696.6
484.602	695.2
485.017	696.4
485.412	704.4
485.827	695.4
486.243	694.2
486.638	725.2
487.054	710.2
487.47	719
487.865	702.2
488.281	694
488.697	688.2
489.092	703.6
489.508	685.2
489.925	709
490.32	681
490.736	708.8
491.153	699
491.548	702.8
491.964	708.4
492.381	679.8
492.776	705.4
493.193	695.8
493.61	707.2
494.006	697
494.422	709
494.84	681.8
495.235	709.2
495.652	700.2
496.069	692.6
496.465	686.4
496.883	698
497.3	725.8
497.696	687
498.113	701.6
498.509	676.8
498.927	674.2
499.344	692
499.741	688.4
500.158	708.8
500.576	706
500.973	695.8
501.39	682.2
501.787	687.4
502.205	701.4
502.623	675.8
503.02	691
503.438	680.4
503.856	686.8
504.253	693.2
504.671	696.8
505.068	682.2
505.486	681.2
505.905	708.4
506.302	693.6
506.72	703.6
507.118	676
507.536	695.6
507.955	691.2
508.352	697
508.771	686.6
509.169	702.4
509.587	691.4
510.006	694.6
510.404	675.2
510.823	685.8
511.221	681.2
511.64	690.6
512.038	705.4
512.457	679.2
512.877	681.6
513.275	679.4
513.694	687.4
514.092	689.6
514.512	689.2
514.91	683.6
515.33	693.6
515.749	685
516.148	692.4
516.568	700
516.966	683.6
517.386	680.6
517.785	690.2
518.205	678.2
518.603	674.8
519.024	692.8
519.444	693.6
519.843	692.2
520.263	692.6
520.662	685
521.082	685
521.481	685.6
521.902	689
522.301	683.8
522.722	685.6
523.121	674.8
523.542	673.2
523.963	678.6
524.362	693.4
524.783	684.8
525.183	682.8
525.604	687.6
526.003	671
526.425	682
526.824	689.6
527.246	691.4
527.646	690.4
528.067	688.6
528.467	682.8
528.888	690.2
529.289	684.6
529.71	679.2
530.11	685.6
530.532	679.8
530.932	676.4
531.354	672.8
531.755	716
532.176	685
532.577	682.4
532.999	690.2
533.4	678.6
533.822	695.4
534.223	685.8
534.645	686
535.046	678.6
535.468	677.2
535.869	699.2
536.292	673
536.693	717.6
537.115	689.2
537.516	671.2
537.939	674.2
538.34	706.8
538.742	679.2
539.165	682.2
539.566	674.2
539.989	668.6
540.391	678
540.814	673.8
541.216	675
541.639	674.6
542.041	679.4
542.464	664.4
542.866	672.2
543.268	667.8
543.691	679.8
544.093	692.4
544.517	698.4
544.919	672.8
545.343	699.4
545.745	670.4
546.147	678.6
546.571	674
546.974	664.8
547.398	680.6
547.8	690.6
548.224	671.4
548.627	667.2
549.03	681.8
549.454	665.8
549.857	664.6
550.281	672.6
550.684	671.2
551.087	692.8
551.512	680
551.915	677.8
552.34	679
552.743	674.6
553.146	684.2
553.571	683
553.975	696
554.399	670
554.803	742.6
555.207	677
555.632	667.8
556.036	684.8
556.461	668.8
556.865	677
557.268	670.4
557.694	666.6
558.098	692.6
558.502	679.8
558.927	662.8
559.332	680.2
559.736	680.6
560.162	686.6
560.566	674.8
560.992	684.8
561.396	679
561.801	675.4
562.227	677.6
562.631	671.8
563.036	670
563.462	692.4
563.867	672.2
564.272	656.6
564.698	678.6
565.103	660.6
565.508	705
565.935	674.6
566.34	678
566.745	686
567.172	672.2
567.577	695.6
567.982	692.4
568.409	685.2
568.815	662.8
569.22	668.6
569.626	682
570.053	667.4
570.459	671.4
570.865	678.6
571.292	680.4
571.698	680.4
572.104	662.2
572.531	672.2
572.937	682.2
573.343	671.4
573.75	676.8
574.177	681.2
574.583	685.4
574.99	662.6
575.396	681.2
575.824	672.4
576.231	671.4
576.637	667.6
577.065	707.8
577.472	667.4
577.879	665.2
578.286	693
578.714	661.8
579.121	671.8
579.528	675.8
579.935	689.2
580.364	676.2
580.771	660
581.178	666
581.585	679.8
582.014	683.8
582.421	667.2
582.829	670
583.236	681.8
583.644	669.4
584.073	670
584.481	666.6
584.889	670.8
585.296	674.8
585.726	671.4
586.134	657
586.542	672.8
586.95	692.2
587.358	663.2
587.787	680
588.196	662.6
588.604	669.8
589.012	666.2
589.421	668.6
589.851	661.8
590.259	685
590.668	674.2
591.076	712.6
591.485	660.6
591.894	670
592.324	686
592.733	688.2
593.142	655
593.551	668.2
593.96	674.8
594.369	660
594.8	664.6
595.209	662.6
595.618	651.4
596.028	672.2
596.437	660.4
596.847	679
597.256	668.6
597.687	677
598.097	673
598.507	665.4
598.917	671.4
599.327	676.6
599.736	669.8
600.146	676.6
600.556	669.8
600.988	689
601.398	672.8
601.808	683.6
602.219	657.6
602.629	665.8
603.039	676
603.45	701.6
603.86	670.6
604.271	686.6
604.703	668.2
605.114	667
605.525	678.4
605.935	681.2
606.346	701.2
606.757	673
607.168	670.2
607.579	674.8
607.99	676
608.402	667.4
608.813	679.4
609.224	670
609.636	659.2
610.047	663.2
610.48	677.6
610.892	677.2
611.303	691.2
611.715	667.2
612.127	663.2
612.539	664.6
612.95	662.6
613.362	660.4
613.774	657.8
614.186	662.4
614.599	661.4
615.011	674.4
615.423	667
615.835	657.6
616.248	653
616.66	672.2
617.073	659.8
617.485	668.2
617.898	676
618.311	666.2
618.723	669.8
619.136	700
619.549	677.8
619.962	696.2
620.375	666.4
620.788	671.8
621.201	651.4
621.614	675.2
622.028	668.6
622.441	674.2
622.854	678.8
623.268	666
623.681	679
624.095	673.6
624.509	686
624.922	666.6
625.336	650
625.728	671.6
626.142	680.2
626.556	686
626.97	681.4
627.384	654.8
627.799	665.6
628.213	676.8
628.627	659.4
629.041	671.4
629.456	664.2
629.87	661.2
630.285	679.2
630.699	680.6
631.093	659.8
631.507	670.8
631.922	680.6
632.337	685.6
632.752	657
633.167	662.4
633.582	670.4
633.997	665
634.412	662
634.806	665
635.221	649.6
635.637	679
636.052	663.4
636.468	669.4
636.883	688.2
637.299	665.6
637.715	656.2
638.109	667.4
638.525	654.6
638.941	687.2
639.357	671.4
639.773	677
640.189	665.2
640.584	665.6
641	672.4
641.416	652
641.832	664
642.249	667
642.665	665.6
643.06	660.6
643.477	673.8
643.894	644.8
644.31	657.2
644.727	653.2
645.123	663.8
645.54	649.4
645.957	659
646.374	678.2
646.77	662.6
647.187	692.8
647.604	658
648.021	644.4
648.439	657
648.835	678.4
649.252	663.2
649.67	672.2
650.088	665.8
650.484	663.6
650.902	670.6
651.32	664.8
651.738	660
652.134	664.6
652.552	690.4
652.971	674.8
653.389	671.6
653.786	664.6
654.204	687.6
654.622	657
655.019	668
655.438	675
655.857	673.2
656.275	669.8
656.673	659
657.091	748.2
657.51	655.4
657.908	675.4
658.327	692.6
658.746	651
659.144	665
659.563	690.2
659.982	672
660.38	659.8
660.8	673
661.219	675.6
661.617	668.2
662.037	668.2
662.457	686.4
662.855	651.6
663.275	700.6
663.695	668.4
664.094	662
664.514	671.6
664.934	657.4
665.333	668.8
665.753	656.8
666.152	650
666.572	659.2
666.993	682.8
667.392	661
667.812	669.8
668.212	661.6
668.632	679.8
669.053	666.4
669.453	667.6
669.874	673
670.273	673
670.694	652.8
671.116	677.8
671.515	675.2
671.937	662.6
672.337	669.4
672.758	669
673.158	670
673.58	651.4
673.98	674.8
674.402	674
674.824	661
675.224	663.2
675.646	652.4
676.047	666.8
676.469	666.2
676.869	676.8
677.292	661.8
677.693	662.4
678.115	666.8
678.516	666.4
678.939	676.8
679.34	668.4
679.762	683.2
680.164	678.4
680.586	657.6
680.988	676.6
681.411	695.8
681.812	664.8
682.236	664.4
682.637	650
683.061	648.4
683.462	671.2
683.864	670.4
684.288	673.2
684.69	649.6
685.114	678.6
685.516	681.2
685.94	658.8
686.342	680.8
686.766	661.8
687.168	664.4
687.571	685.8
687.995	671.4
688.398	655
688.822	663.4
689.225	688
689.628	690.2
690.052	660
690.456	679.8
690.88	662.4
691.284	654.6
691.687	678.6
692.112	663.6
692.515	655.4
692.919	664.4
693.344	666.8
693.747	667.6
694.173	664
694.577	679.6
694.98	657.8
695.406	662.4
695.81	669.4
696.214	674.8
696.64	673.8
697.044	670.6
697.448	673.2
697.874	661.2
698.279	665.4
698.684	656.2
699.11	662.8
699.514	658.2
699.919	672.8
700.324	657.4
700.75	666.2
701.156	661.4
701.561	670.2
701.987	673.6
702.393	674.2
702.798	680
703.203	661.2
703.63	667.2
704.036	652.8
704.442	665.8
704.847	663.4
705.274	665
705.68	671.4
706.086	673.2
706.492	655.2
706.92	667.8
707.326	677.2
707.732	665.4
708.139	653
708.545	653.8
708.973	655.4
709.38	658.8
709.786	656.8
710.193	687.2
710.6	667
711.028	656.8
711.435	669
711.842	660.6
712.249	660.6
712.656	662.8
713.064	680.8
713.492	658
713.9	663.8
714.307	667
714.715	670.2
715.123	671.4
715.53	670.6
715.938	675.2
716.367	666.8
716.775	663
717.184	660.4
717.592	658.2
718	672.6
718.408	708
718.816	715.4
719.225	668.4
719.633	662.4
720.042	654.8
720.472	659
720.881	687.6
721.29	660.2
721.699	649.2
722.108	661.8
722.517	663.8
722.926	659
723.335	673
723.744	663.2
724.154	668.4
724.563	673
724.973	664.8
725.382	651.8
725.792	653.4
726.202	654
726.612	690.4
727.022	673.8
727.432	662.8
779.813	665.4
780.223	720.6
780.634	658.6
781.044	653.4
781.454	663
781.865	674.2
782.276	648.4
782.686	673
783.097	662.4
783.508	663.8
783.919	663.6
784.33	672.6
784.741	668
785.152	658
785.563	648.6
785.974	654.8
786.386	672
786.776	650.4
787.188	665.6
787.599	650
788.011	672.6
788.423	666
788.835	655.8
789.247	649.2
789.659	658.2
790.071	662.4
790.483	709.8
790.874	664.2
791.286	673
791.699	651.2
792.111	661.6
792.524	663
792.937	661.6
793.349	656.2
793.741	668
794.154	663.6
794.567	671.8
794.98	666.2
795.393	662.2
795.785	679.4
796.198	655.8
796.612	660.2
797.026	656
797.439	637.4
797.831	651.2
798.245	646.2
798.659	647.6
799.073	652
799.487	658
799.88	656.8
800.294	648.6
800.708	661
801.123	655.6
801.516	680.2
801.93	654
802.345	651.8
802.76	655.8
803.153	671.4
803.568	666.4
803.983	674
804.377	665.6
804.792	644.8
805.207	642.8
805.601	656.8
806.016	706.4
806.432	656.2
806.826	693.6
807.242	671
807.658	664.8
808.052	657.8
808.468	656.4
808.884	654.6
809.279	661.6
809.695	674.2
810.111	689.4
810.506	664.4
810.922	682.2
811.339	650.6
811.734	664.6
812.151	664.2
812.546	667.6
812.963	651.6
813.38	671.6
813.776	664.4
814.193	679.6
814.589	657.4
815.006	662
815.402	655
815.82	662.2
816.237	660.8
816.633	670
817.051	653.2
817.448	663.6
817.866	652.4
818.262	686.8
818.68	649.4
819.077	651.6
819.495	664.8
819.892	702.4
820.311	654.8
820.708	650.2
821.127	661.4
821.524	674
821.943	662.8
822.34	679.6
822.759	653.8
823.157	662.2
823.576	682
823.974	674.4
824.393	735.6
824.791	651.4
825.189	658.8
825.609	648.8
826.007	660.2
826.427	642.4
826.826	653.6
827.246	667.8
827.644	641.8
828.043	684.4
828.463	660.8
828.862	672.8
829.261	665.4
829.682	653.4
830.081	670
830.502	656.4
830.901	663.2
831.301	655.6
831.722	644.4
832.121	663.8
832.521	654
832.943	657.8
833.342	656.4
833.742	655
834.164	656
834.564	643.8
834.965	651.2
835.386	661.6
835.787	659
836.188	656.6
836.588	664.4
837.01	666.8
837.411	649
837.812	670.2
838.213	672.2
838.636	658
839.037	739.2
839.438	662
839.84	660.4
840.263	669.8
840.664	666.8
841.066	658.4
841.468	663
841.891	651.6
842.293	675.8
842.695	667
843.098	672.6
843.5	666.2
843.902	666
844.326	670.4
844.729	666
845.131	679
845.534	658.8
845.937	676.2
846.34	680
846.764	650.2
847.167	658.4
847.571	647.8
847.974	651
848.377	658.8
848.781	712.4
849.184	672.8
849.588	654.8
849.992	656
850.396	658.2
850.821	680.4
851.225	662.4
851.63	663.6
852.034	681.8
852.438	656.2
852.843	705.4
853.247	655.6
853.652	650.4
854.057	679.2
854.462	666.8
854.867	670.6
855.272	700
855.677	670.2
856.082	660.8
856.487	645.8
856.893	662.8
857.298	672.2
857.704	654.4
858.11	659.6
858.516	661.2
858.922	662.6
859.328	666.6
859.734	667.6
860.14	662
860.525	661
860.931	648.8
861.338	650
861.745	662.4
862.151	674.2
862.558	659.4
862.965	652.6
863.372	654.4
863.779	663.2
864.186	685.2
864.572	662
864.98	681.6
865.387	702.2
865.795	654.2
866.203	671
866.61	649
867.018	673.2
867.405	672.6
867.813	659.4
868.221	657.8
868.63	651.8
869.038	663.2
869.425	705
869.834	667.2
870.243	653.8
870.652	644
871.039	663.8
871.448	655.8
871.857	666.8
872.266	660.4
872.654	665.2
873.064	656.2
873.473	666.6
873.883	649.4
874.271	640.2
874.681	665.6
875.091	639.4
875.48	657.4
875.89	681.8
876.3	654.8
876.689	639
877.1	657.4
877.51	659.2
877.9	684
878.31	657.4
878.721	692.4
879.111	660.4
879.522	653.8
879.933	644.2
880.323	645.8
880.734	659.8
881.125	658.6
881.536	656
881.948	654.8
882.338	659.2
882.75	669.8
883.141	651
883.553	665.8
883.944	689.8
884.356	680.2
884.769	659
885.16	651
885.573	664.8
885.964	646.6
886.377	656.8
886.768	648.4
887.181	660.8
887.573	652.6
887.987	660.2
888.378	671
888.792	660.4
889.184	704.6
889.598	649
889.99	663.6
890.383	650
890.797	647.2
891.19	669.6
891.604	643.8
891.997	646.6
892.411	650.6
892.805	652.2
893.198	658.6
893.613	639.6
894.006	649.8
894.421	645.6
894.815	660.6
895.209	646.4
895.624	709.2
896.018	676.4
896.412	649
896.828	659
897.222	652.2
897.617	659.8
898.033	670.6
898.427	657
898.822	652.4
899.239	643.2
899.634	641.6
900.029	666.6
900.424	644
900.841	643.8
901.236	669.8
901.632	661.8
902.027	726.8
902.445	667
902.841	650.6
903.237	662.2
903.633	676
904.05	656.4
904.447	659.8
904.843	666.6
905.24	663.4
905.636	645.8
906.033	652
906.451	665.4
906.848	653
907.246	659
907.643	652
908.04	662.2
908.438	665.4
908.835	667.2
909.254	656.8
909.652	660
910.05	652.8
910.448	653.2
910.846	656.2
911.244	649.2
911.643	655.2
912.041	648.2
912.44	675.8
912.839	647.4
913.237	650.6
913.636	643.2
914.035	665
914.434	657.8
914.834	676.4
915.233	674.8
915.633	649.6
916.032	655.6
916.432	642.4
916.832	673
917.232	655.2
917.632	653.4
918.032	652
918.432	659.2
918.833	654.2
919.233	649.6
919.634	637
920.035	667.2
920.436	662.8
920.837	663.8
921.238	643.4
921.639	661.2
922.019	653.2
922.42	659.6
922.822	656.2
923.224	654.8
923.625	655
924.027	655.8
924.429	684
924.81	656.8
925.212	665
925.615	666.2
926.017	662
926.42	662.8
926.801	652.8
927.204	650.8
927.607	657.8
928.01	663.6
928.413	653.8
928.795	644
929.199	657
929.602	646.8
930.006	659.8
930.388	648
930.792	659.8
931.196	648
931.579	687
931.983	648.8
932.388	701.4
932.771	661.8
933.176	643.6
933.58	664.4
933.964	664.4
934.369	648.2
934.774	673.6
935.158	657.4
935.563	654.8
935.947	658.6
936.353	663.6
936.759	647.6
937.143	655.2
937.549	669.6
937.934	674.2
938.34	668.2
938.746	651.6
939.131	656.2
939.538	648.4
939.923	654.2
940.33	649.8
940.716	664.4
941.123	657.8
941.508	664
941.916	676
942.302	660.4
942.709	638.4
943.096	641
943.503	654
943.89	655.2
944.298	653.4
944.685	681.6
945.072	653.6
945.48	667.6
945.867	651.8
946.276	649
946.663	690.2
947.051	673
947.46	670.8
947.848	660.2
948.257	646.4
948.645	663.6
949.033	653.2
949.443	651.6
949.831	699.4
950.22	646.2
950.63	665.2
951.018	693.8
951.407	658.2
951.796	643.2
952.207	665
952.596	657.6
952.985	643.8
953.375	701.4
953.786	662
954.176	647
954.566	667.8
954.956	651.6
955.367	649.6
955.758	689.8
956.148	641.6
956.539	668.2
956.929	650.8
957.341	649.2
957.732	649
958.123	666.8
958.515	643.8
958.906	662.8
959.297	648.2
959.689	652.8
960.102	646.8
960.494	660.2
960.886	653
961.278	648.8
961.67	679.6
962.062	698
962.455	653.6
962.847	640.8
963.24	653.2
963.633	661
964.026	643.6
964.419	655.6
964.812	672
965.206	641.8
965.599	655.2
965.993	653.2
966.386	651.4
966.78	676.8
967.174	664
967.569	654.8
967.963	646.2
968.357	643.8
968.752	651
969.146	646.6
969.541	655
969.936	651
970.331	665.4
970.705	657.2
971.1	652.2
971.496	664.4
971.892	645.8
972.287	648.6
972.683	655.2
973.079	649
973.454	662.6
973.85	643.4
974.247	659.8
974.643	677.4
975.04	652
975.415	653.6
975.812	645.8
976.209	665.6
976.607	644.4
976.982	662.4
977.38	679.6
977.778	660.4
978.175	656.2
978.552	656.2
978.95	659.4
979.348	664.4
979.725	702.8
980.123	657.4
980.522	660
980.899	642.6
981.298	650.2
981.697	649
982.075	648
982.474	644.2
982.852	655.2
983.251	655.8
983.651	651.4
984.029	654.8
984.429	653.8
984.808	644.8
985.208	642.6
985.609	643.6
985.987	633.4
986.388	647.8
986.768	661.8
987.168	644.8
987.548	655
987.949	666.6
988.329	660.4
988.731	636.6
989.111	653.8
989.491	649.6
989.893	658
990.273	662.8
990.676	649.6
991.057	644.6
991.459	648.4
991.84	653.8
992.221	647
992.624	672.8
993.006	644.6
993.388	651.6
993.791	670.2
994.173	666
994.576	683.4
994.959	638.4
995.341	649.4
995.724	648.8
996.128	646.2
996.511	650.4
996.894	638.6
997.298	646.8
997.681	660.4
998.065	650.6
998.448	645.4
998.854	655.8
999.237	640.2
999.621	661.6
1000.01	670.6
1000.39	650.6
1000.8	643.8
1001.18	656.6
1001.56	657
1001.95	652.8
1002.33	656.2
1002.72	658.8
1003.13	647.4
1003.51	654.6
1003.9	649.6
1004.28	667.4
1004.67	646.8
1005.06	651.8
1005.44	683.2
1005.83	635.2
1006.21	648
1006.6	646.4
1006.99	661
1007.37	652
1007.76	650.6
1060.12	644.2
1060.51	637.6
1060.89	654.2
1061.28	666.6
1061.67	667.8
1062.06	662.6
1062.45	657.4
1062.83	644.8
1063.22	656.6
1063.61	702.4
1064	650
1064.39	653.6
1064.78	648.2
1065.14	670.2
1065.53	662
1065.92	654.2
1066.31	654.6
1066.7	664.6
1067.09	673
1067.46	659
1067.85	645.6
1068.24	640
1068.63	669
1069.02	649.6
1069.39	658.4
1069.78	640.4
1070.17	651.4
1070.57	643.8
1070.93	654.6
1071.33	635.2
1071.72	655.8
1072.11	651
1072.48	645.8
1072.87	648.2
1073.26	658.8
1073.64	650.4
1074.03	642.6
1074.4	650
1074.79	645.2
1075.19	653
1075.56	660.2
1075.95	652.8
1076.34	651.4
1076.72	649.2
1077.11	665.2
1077.48	661.8
1077.88	658.8
1078.25	649.4
1078.64	666.6
1079.02	649.2
1079.41	659.8
1079.78	652.4
1080.18	647.6
1080.55	727.6
1080.95	656
1081.32	647.4
1081.72	655.6
1082.09	651.8
1082.49	643.4
1082.86	646.6
1083.24	641.2
1083.63	643
1084.01	650.2
1084.38	661.4
1084.78	641.6
1085.16	658.8
1085.55	663.4
1085.93	660.4
1086.31	650.2
1086.7	686.2
1087.08	658.6
1087.46	661.8
1087.83	643.6
1088.23	662.4
1088.61	657.2
1088.99	654.4
1089.36	652.2
1089.76	653.6
1090.14	656.4
1090.52	649
1090.9	646.8
1091.27	652.4
1091.67	671.6
1092.05	660.8
1092.43	648
1092.81	658.8
1093.19	663.2
1093.57	645.2
1093.95	644.6
1094.35	667.6
1094.73	654.4
1095.11	636.8
1095.49	650.2
1095.87	648.8
1096.25	673
1096.63	670
1097.01	649.4
1097.39	657.8
1097.77	647.6
1098.15	648.8
1098.53	648.6
1098.91	647.4
1099.29	652
1099.68	673.6
1100.06	662.4
1100.44	656.6
1100.82	654
1101.18	659.6
1101.56	648.2
1101.95	644.6
1102.33	657
1102.71	649.4
1103.1	655.8
1103.48	640
1103.86	638
1104.22	658.8
1104.61	651
1104.99	646.2
1105.38	630.6
1105.76	657.8
1106.12	655.6
1106.51	692
1106.89	661.6
1107.26	648.8
1107.64	654.4
1108.03	644.2
1108.41	646.8
1108.78	655.8
1109.16	651
1109.55	660.2
1109.91	636.8
1110.3	634.4
1110.69	671.4
1111.05	655
1111.44	651.8
1111.8	659.6
1112.19	648.8
1112.58	646
1112.94	655.6
1113.33	644.8
1113.7	649.6
1114.09	648.4
1114.45	645.8
1114.84	658.2
1115.21	669
1115.6	647.4
1115.96	657.2
1116.35	663.8
1116.72	648.2
1117.11	666.2
1117.48	653.6
1117.85	651.2
1118.24	668
1118.6	651
1118.99	648.4
1119.36	658.2
1119.73	647.8
1120.12	651.6
1120.49	643.6
1120.86	658
1121.25	652.4
1121.62	634.6
1121.99	644.6
1122.38	667
1122.76	651.4
1123.13	642.2
1123.5	647.8
1123.89	657.6
1124.26	644
1124.63	652.2
1125	651.2
1125.4	640.2
1125.77	646.8
1126.14	634.4
1126.51	651.8
1126.88	647.2
1127.26	641.4
1127.63	631.6
1128.02	644.6
1128.4	651.6
1128.77	646.6
1129.14	645.2
1129.52	655.8
1129.89	654.2
1130.26	648.6
1130.64	638.2
1131.01	641
