#lambda/nm	C1
208.295	552
208.67	496.8
209.045	460.6
209.419	462.6
209.794	681
210.169	667.2
210.544	796.4
210.919	690.8
211.295	679.4
211.67	691.4
212.045	689.6
212.421	675.2
212.796	734.2
213.172	685.4
213.547	673.6
213.923	688.4
214.299	688.8
214.675	687.8
215.051	691.2
215.427	692.6
215.803	711.2
216.179	694.8
216.555	676.6
216.932	698.2
217.308	686.8
217.684	679.8
218.061	691.6
218.438	697.4
218.814	685.8
219.191	698
219.568	683
219.945	681
220.322	692.8
220.699	695.6
221.076	700.8
221.453	698.2
221.83	679.2
222.208	686.6
222.585	686
222.962	693.4
223.34	701.2
223.717	696.4
224.095	685
224.473	687
224.851	690.2
225.229	673.4
225.607	704.8
225.985	675.4
226.363	683
226.741	690
227.119	684.8
227.497	703.8
227.876	671.2
228.254	691.2
228.633	700.6
229.011	693.2
229.39	694.2
229.769	690.2
230.148	694.6
230.527	712.4
230.905	682.4
231.284	684.8
231.664	674.4
232.043	687.2
232.422	689.8
232.801	683.8
233.181	696.8
233.56	683.6
233.94	676.8
234.319	666.4
234.699	681.8
235.079	729
235.458	728
235.838	709.8
236.218	676.4
236.598	677
236.978	678.2
237.358	674.2
237.738	674.6
238.119	688.2
238.499	674.4
238.88	687.8
239.26	704.8
239.641	674.6
240.021	675.2
240.402	686
240.783	685
241.163	681.6
241.544	688.2
241.925	681.2
242.306	701.6
242.687	668.2
243.069	685.8
243.45	688.2
243.831	681
244.212	686.8
244.594	737.8
244.975	697.2
245.357	695
245.739	682.2
246.12	683
246.502	704.8
246.884	678
247.266	682.2
247.648	691.8
248.03	720
248.412	688.2
248.794	704
249.176	684.2
249.559	698.6
249.941	670
250.323	677.6
250.706	685.4
251.089	682.6
251.471	691.6
251.854	684.6
252.237	679.6
252.62	697
253.002	684.6
253.385	678.8
253.769	703.4
254.152	685.6
254.535	689
254.918	671.4
255.301	683.2
255.685	683.4
256.068	673.6
256.452	716.8
256.835	709.8
257.219	695.2
257.603	703.8
257.986	681.2
258.37	701.8
258.754	676
259.138	690
259.522	703.4
259.906	691.8
260.29	683.6
260.675	686.4
261.059	687
261.443	676.4
261.828	701.2
262.212	694.6
262.597	676.6
262.981	676.8
263.366	696.4
263.751	699.4
264.136	682
264.521	683
264.906	674.2
265.291	698
265.676	684.6
266.061	691
266.446	707.8
266.831	684.6
267.217	711.8
267.602	696.6
267.987	685.6
268.373	681.4
268.759	698.4
269.144	697.6
269.53	686.2
269.916	680.2
270.302	684.4
270.688	693
271.074	687
271.46	694.6
271.846	722.2
272.232	691.6
272.618	683.6
273.004	687.4
273.391	700.4
273.777	709
274.164	694.8
274.55	703
274.937	693
275.324	687.2
275.71	701.2
276.097	695.2
276.484	689.8
276.871	696.8
277.258	691.2
277.645	669.8
278.032	686.4
278.419	687.4
278.807	692.8
279.194	671.8
279.581	682.2
279.969	694.2
280.356	697.4
280.744	698.6
281.131	721.8
281.519	698
281.907	683.2
282.295	679
282.682	704.2
283.07	695.2
283.458	699.8
283.846	701.2
284.235	710.2
284.623	699.4
285.011	675.4
285.399	694
285.788	687.8
286.176	676
286.565	707.8
286.953	682.8
287.342	681.4
287.731	688
288.119	677.4
288.508	691
288.897	695.8
289.286	671.4
289.675	691
290.064	702.6
290.453	686.4
290.821	686.2
291.21	710.6
291.599	686
291.989	706.8
292.378	688.2
292.768	719.2
293.157	694.8
293.547	695.2
293.936	686.6
294.326	684.6
294.716	692.8
295.106	689.8
295.496	694.6
295.886	698.8
296.276	692
296.666	685.8
297.056	683.4
297.446	676.8
297.836	706
298.227	679.6
298.617	691
299.008	713
299.398	696
299.789	684.8
300.179	697.2
300.57	704.4
300.961	686.4
301.352	681.2
301.742	700
302.133	695
302.524	690.2
302.915	694.4
303.307	685.2
303.698	702.6
304.089	697
304.48	695
304.872	690.8
305.263	684.8
305.655	683
306.046	697
306.438	700.4
306.829	688.8
307.221	701.6
307.613	701.8
308.005	704.4
308.397	711.6
308.789	715.4
309.181	721.4
309.573	716
309.965	703.4
310.357	683.2
310.749	701
311.142	680.4
311.534	685
311.926	700
312.319	689.4
312.711	676.2
313.104	705.6
313.497	693.6
313.889	732.8
314.282	708.4
314.675	716
315.068	680.6
315.461	698.4
315.854	720
316.247	700
316.64	681.8
317.033	683
317.405	700
317.798	684.6
318.192	694.8
318.585	683
318.979	701.8
319.372	683.8
319.766	687.4
320.16	707
320.553	705.6
320.947	709.2
321.341	684
321.735	691.4
322.129	683
322.523	711.4
322.917	678.6
323.311	701.6
323.705	696.6
324.099	703.4
324.494	708.8
324.888	702.2
325.282	702.4
325.677	707.2
326.071	705.4
326.466	702.8
326.861	698.2
327.255	709.6
327.65	703.6
328.045	712.2
328.44	699.6
328.835	689.2
329.23	678.4
329.625	714
330.02	691.4
330.415	715.6
330.81	700.2
331.206	691.6
331.601	690.2
331.996	696.4
332.37	715.8
332.766	672.4
333.161	724
333.557	689.6
333.953	696
334.348	952.4
334.744	701.4
335.14	691.4
335.536	692
335.932	710
336.328	691.4
336.724	703.8
337.12	692.4
337.516	698
337.913	691.6
338.309	711.4
338.705	696
339.102	700.6
339.498	692.4
339.895	698.2
340.291	680.6
340.688	700.2
341.085	679.6
341.481	686.2
341.878	676.8
342.275	711.8
342.672	679.6
343.069	685.6
343.466	674
343.842	701.2
344.239	685.4
344.636	686.4
345.033	689.8
345.431	675
345.828	701.6
346.225	684.6
346.623	725
347.02	686.8
347.418	698
347.816	708.2
348.213	678.2
348.611	699.4
349.009	688.4
349.407	709.6
349.805	674.4
350.203	681.2
350.601	701.6
350.999	682
351.397	736.4
351.795	693.2
352.193	705
352.57	695.2
352.969	706.2
353.367	680.6
353.766	681.4
354.164	685.8
354.563	701.2
354.961	695
355.36	674.6
355.759	685.2
356.158	679.2
356.557	681.8
356.956	682.2
357.355	673.4
357.754	684.8
358.153	688.8
358.552	713.6
358.951	687.8
359.35	694.2
359.75	691
360.149	674.4
360.527	670.4
360.926	675.2
361.326	684.4
361.726	688.8
362.125	685
362.525	690.6
362.925	681.2
363.325	687.2
363.724	679.2
364.124	676.6
364.524	674.6
364.924	680.2
365.324	702.8
365.725	671
366.125	691
366.525	692.6
366.904	670.6
367.304	667.6
367.705	699.8
368.105	691.4
368.506	685.2
368.906	679.8
369.307	675
369.708	690.6
370.108	681
370.509	696.2
370.91	677
371.311	687.2
371.712	693
372.113	685.6
372.514	669.6
372.894	678.4
373.295	681.6
373.696	696.8
374.097	702
374.499	714.6
374.9	692.6
375.301	681.4
375.703	687.8
376.105	676.8
376.506	687.4
376.908	695.6
377.309	684.8
377.711	690.8
378.113	682
378.493	675.2
378.895	680.6
379.297	696.4
379.699	666.2
380.102	690.4
380.504	683
380.906	678.2
381.308	714.4
381.71	681.2
382.113	692.2
382.515	689.4
382.918	688.4
383.299	684.2
383.701	685.2
384.104	681.2
384.507	666.8
384.909	684
385.312	664.8
385.715	671.4
386.118	691.8
386.521	667.2
386.924	695.2
387.327	679.6
387.709	670.2
388.112	658.4
388.515	675.8
388.918	679.6
389.322	688
389.725	681
390.129	710
390.532	686.2
390.936	675.4
391.339	675.4
391.743	683.6
392.125	670.6
392.529	687.2
392.933	688.8
393.337	678.4
393.74	690.2
394.144	677.2
394.548	676
394.953	679.2
395.357	687.4
395.761	677.6
396.144	687.2
396.548	678.6
396.952	681.8
397.357	673.2
397.761	668.2
398.166	675.2
398.57	678.2
398.975	666.8
399.379	684.2
399.763	730
400.168	679.6
400.572	679.4
400.977	674.4
401.382	707.2
401.787	685.6
402.192	705.6
402.597	691.4
403.002	661
403.386	694.8
403.791	699.2
404.197	675.8
404.602	681.4
405.007	692.8
405.413	677.6
405.818	676.8
406.224	681.8
406.608	684.6
407.014	684.2
407.42	706.2
407.825	673.4
408.231	693.6
408.637	683
409.043	698.8
409.449	683.6
409.834	674.8
410.24	686.8
410.646	699.6
411.052	691.6
411.458	684.6
411.865	683.6
412.271	702.2
412.677	679.2
413.062	694.2
413.469	671
413.875	710.8
414.282	693.4
414.689	680
415.095	694.2
415.502	674.4
415.888	684
416.294	678
416.701	723.8
417.108	679
417.515	684.4
417.923	677.6
418.33	705.8
418.715	688.2
419.123	680.2
419.53	673.2
419.937	680
420.345	697.4
420.752	675.4
421.16	688.2
421.546	680.6
421.953	684.8
422.361	672.2
422.769	682
423.177	679.6
423.585	713.4
423.992	709.6
424.379	697
424.787	694.4
425.195	711.6
425.603	681.4
426.011	692.8
426.419	704.4
426.806	691.4
427.214	691.6
427.623	700.4
428.031	705.4
428.44	684.6
428.848	697.2
429.235	711.4
429.644	695.8
430.053	690
430.461	710.4
430.87	726.6
431.279	698.4
431.666	680.6
432.075	683.6
432.484	696.4
432.893	688.6
433.302	706.6
433.711	738.8
434.099	696.2
434.508	685.4
434.918	675.8
435.327	693.2
435.737	693.2
436.125	694.6
436.534	690.6
436.944	687.4
437.353	692.4
437.763	709.6
438.173	688
438.561	704.4
438.971	670.4
439.381	687.4
439.791	698.4
440.201	673.2
440.589	693.6
440.999	696.6
441.409	698
441.819	687.4
442.23	701.8
442.619	700.4
443.029	697.8
443.439	700.8
443.85	705.2
444.26	717.6
444.649	711.6
445.06	706.6
445.471	698.6
445.881	699.4
446.292	721.6
446.682	726.2
447.092	681.6
447.503	754.4
447.914	699.8
448.325	707
448.715	703.2
449.126	696
449.537	698.4
449.948	705.8
450.338	702.8
450.75	716.2
451.161	702.6
451.572	711.8
451.984	707.6
452.374	692.8
452.786	713.8
453.197	716.4
453.609	724.8
453.999	695.4
454.411	690.6
454.823	724.8
455.235	706.6
455.647	711.6
456.037	720
456.449	693.6
456.862	711
457.274	711.4
457.665	700.2
458.077	709.6
458.489	752.8
458.902	709
459.293	717
459.705	714.6
460.118	710
460.53	718.6
460.921	719.2
461.334	717.4
461.747	711.6
462.16	726
462.551	726.6
462.964	719.8
463.377	700.4
463.79	703
464.182	731.8
464.595	705.8
465.008	718
465.421	723.2
465.813	716.4
466.226	718.8
466.64	716
467.053	767.6
467.445	732.6
467.859	734
468.272	724.8
468.686	737.4
469.078	722
469.492	710.2
469.906	721.2
470.298	727
470.712	720.8
471.126	783.4
471.54	714
471.933	711.2
472.347	717.8
472.761	722.6
473.175	710.8
473.568	716.4
473.982	706.8
474.397	717.8
474.79	717
475.204	726
475.619	712.8
476.033	730.4
476.426	723.8
476.841	713.8
477.256	737.2
477.649	719.2
478.064	714.6
478.479	716.4
478.872	710.4
479.287	704.4
479.702	712.8
480.118	709.4
480.511	712.2
480.927	718.6
481.342	709.2
481.736	721.4
482.151	708.6
482.566	729
482.96	715.4
483.376	729.8
483.792	710.2
484.186	721.6
484.602	719.6
485.017	718
485.412	720.4
485.827	728.6
486.243	712.8
486.638	740.8
487.054	719.4
487.47	740.6
487.865	719.4
488.281	711.6
488.697	723.6
489.092	714.4
489.508	712.8
489.925	728
490.32	701.8
490.736	722.4
491.153	714.6
491.548	721
491.964	729.6
492.381	693.6
492.776	717.2
493.193	721.6
493.61	722.4
494.006	710.8
494.422	726
494.84	702.8
495.235	723.6
495.652	721.6
496.069	710.2
496.465	710.8
496.883	706.8
497.3	738.6
497.696	714.8
498.113	713.8
498.509	697.8
498.927	702.8
499.344	702
499.741	698.4
500.158	704.6
500.576	719.8
500.973	711
501.39	700.2
501.787	694.6
502.205	704.8
502.623	700.6
503.02	693.8
503.438	698
503.856	700.8
504.253	714
504.671	708.6
505.068	695
505.486	703
505.905	721.6
506.302	699.2
506.72	715.8
507.118	697.4
507.536	705.4
507.955	704.8
508.352	707.6
508.771	710.6
509.169	702.8
509.587	687.2
510.006	705.2
510.404	682.6
510.823	696.8
511.221	699.6
511.64	700.6
512.038	710.8
512.457	696.8
512.877	704.6
513.275	691.2
513.694	697.6
514.092	694.2
514.512	707.6
514.91	694.2
515.33	697.8
515.749	701.2
516.148	709.8
516.568	703.8
516.966	688.8
517.386	688.4
517.785	696.8
518.205	691.2
518.603	688.2
519.024	692.6
519.444	687.6
519.843	702
520.263	705.4
520.662	698.4
521.082	696
521.481	685
521.902	697
522.301	699.2
522.722	693.4
523.121	691
523.542	689.6
523.963	688.2
524.362	691.2
524.783	698.6
525.183	682.2
525.604	695.2
526.003	678.6
526.425	675.2
526.824	692
527.246	701.4
527.646	705.4
528.067	691.4
528.467	688
528.888	692.2
529.289	690.2
529.71	688
530.11	691
530.532	688.4
530.932	681.6
531.354	682.8
531.755	732.6
532.176	699
532.577	684.2
532.999	690.6
533.4	682.8
533.822	696.8
534.223	687.2
534.645	687.2
535.046	682.6
535.468	696
535.869	702.8
536.292	690.2
536.693	734.2
537.115	685.6
537.516	686.4
537.939	677.2
538.34	704.2
538.742	703.8
539.165	692.4
539.566	687
539.989	678
540.391	684.2
540.814	689.2
541.216	684.6
541.639	690.2
542.041	693.2
542.464	673
542.866	672.2
543.268	674.6
543.691	696
544.093	693.8
544.517	702.6
544.919	668.4
545.343	712
545.745	666.8
546.147	681
546.571	678.6
546.974	669.6
547.398	682.4
547.8	690.4
548.224	682.6
548.627	666.8
549.03	677.2
549.454	666.6
549.857	654
550.281	677.2
550.684	675
551.087	694
551.512	688.6
551.915	685
552.34	680.4
552.743	672.4
553.146	680.6
553.571	676
553.975	704.4
554.399	665
554.803	736
555.207	683
555.632	668.6
556.036	684.2
556.461	663.6
556.865	690.2
557.268	668.2
557.694	683
558.098	685.8
558.502	684.6
558.927	670
559.332	673.8
559.736	679
560.162	688.2
560.566	677.2
560.992	683
561.396	674
561.801	672.2
562.227	671.2
562.631	675.8
563.036	675.4
563.462	690.4
563.867	675.8
564.272	665.4
564.698	684.4
565.103	662.4
565.508	693.4
565.935	676.6
566.34	669.2
566.745	691.6
567.172	679.6
567.577	697
567.982	698.6
568.409	683
568.815	666.6
569.22	677.2
569.626	678
570.053	660.4
570.459	681.8
570.865	684
571.292	684.6
571.698	686.4
572.104	662.6
572.531	669.6
572.937	687
573.343	678.6
573.75	678
574.177	679.2
574.583	677
574.99	670.8
575.396	673
575.824	676.8
576.231	678
576.637	670.4
577.065	698.4
577.472	669
577.879	664.8
578.286	695.2
578.714	676.8
579.121	669.2
579.528	674.2
579.935	686.8
580.364	676.2
580.771	648.4
581.178	661.2
581.585	672.6
582.014	675.2
582.421	670
582.829	676.4
583.236	675.6
583.644	661.4
584.073	675.2
584.481	680.6
584.889	664.4
585.296	682.2
585.726	676.2
586.134	667.6
586.542	668.6
586.95	687
587.358	668.4
587.787	688.2
588.196	657.2
588.604	665.8
589.012	675
589.421	660.8
589.851	670
590.259	670.4
590.668	660
591.076	712.4
591.485	667.4
591.894	674
592.324	692.2
592.733	684.4
593.142	652.4
593.551	662.2
593.96	669.6
594.369	653.4
594.8	661.4
595.209	663.6
595.618	662.6
596.028	663.8
596.437	661.8
596.847	670.2
597.256	671.8
597.687	674
598.097	664.8
598.507	663.2
598.917	669.2
599.327	675.6
599.736	677.6
600.146	681.8
600.556	670.4
600.988	680.4
601.398	662.4
601.808	683
602.219	658.8
602.629	671.6
603.039	670.4
603.45	696
603.86	667.4
604.271	687.2
604.703	678.2
605.114	670.8
605.525	676.8
605.935	663.4
606.346	690.4
606.757	682.6
607.168	664.2
607.579	666.2
607.99	678.6
608.402	672.6
608.813	672.2
609.224	663
609.636	660.6
610.047	664.4
610.48	670.6
610.892	674.6
611.303	673.6
611.715	670.2
612.127	652.6
612.539	652.8
612.95	672.8
613.362	657.2
613.774	664.2
614.186	659.8
614.599	660
615.011	680.2
615.423	669
615.835	656.8
616.248	654.4
616.66	669.2
617.073	661
617.485	666
617.898	677
618.311	673.2
618.723	672
619.136	699.4
619.549	685.2
619.962	692.2
620.375	659.2
620.788	670.2
621.201	654.2
621.614	669
622.028	675.2
622.441	671.2
622.854	675.8
623.268	652.2
623.681	672.4
624.095	668.2
624.509	668
624.922	675.2
625.336	651
625.728	666.4
626.142	679.2
626.556	690.8
626.97	666.8
627.384	660.2
627.799	655.4
628.213	674.4
628.627	667.8
629.041	662
629.456	664
629.87	659
630.285	680.8
630.699	670.8
631.093	673.6
631.507	672.2
631.922	671.2
632.337	686
632.752	663
633.167	667
633.582	666.4
633.997	656.2
634.412	657.8
634.806	663.6
635.221	657.4
635.637	678.2
636.052	654
636.468	672.2
636.883	683.6
637.299	659
637.715	649.4
638.109	659
638.525	657
638.941	678.2
639.357	656.6
639.773	680.4
640.189	665.6
640.584	665.6
641	663.6
641.416	651.4
641.832	662.6
642.249	671.2
642.665	663.4
643.06	669
643.477	676.2
643.894	650
644.31	667
644.727	662.4
645.123	660.4
645.54	661.4
645.957	669.6
646.374	681.6
646.77	673.2
647.187	691.8
647.604	663
648.021	651.6
648.439	658
648.835	665.6
649.252	656.6
649.67	656.6
650.088	663.2
650.484	663.4
650.902	664.2
651.32	663.6
651.738	667
652.134	657.2
652.552	672.6
652.971	676.2
653.389	651.8
653.786	679.8
654.204	685.4
654.622	659.6
655.019	658.4
655.438	662
655.857	656.8
656.275	667.8
656.673	657.4
657.091	743.4
657.51	661.4
657.908	665.8
658.327	675
658.746	651.6
659.144	671
659.563	672.8
659.982	662.8
660.38	652.4
660.8	665.4
661.219	679.2
661.617	669.8
662.037	659.4
662.457	675.6
662.855	649.4
663.275	709.6
663.695	661.8
664.094	659.4
664.514	667.8
664.934	657
665.333	675
665.753	672.2
666.152	659.6
666.572	661.6
666.993	687
667.392	658.4
667.812	660.8
668.212	654.6
668.632	674.8
669.053	665.2
669.453	663
669.874	657
670.273	670.2
670.694	650.4
671.116	680.6
671.515	671.6
671.937	660.4
672.337	663
672.758	660.4
673.158	662.2
673.58	653
673.98	670.8
674.402	676.2
674.824	665
675.224	662.6
675.646	654.8
676.047	658.2
676.469	663
676.869	670
677.292	667.2
677.693	658
678.115	671.4
678.516	678.8
678.939	667
679.34	665.2
679.762	674.4
680.164	666
680.586	657.8
680.988	665.8
681.411	694
681.812	658
682.236	650.6
682.637	647.8
683.061	659
683.462	667.6
683.864	663.4
684.288	669.8
684.69	662.2
685.114	669.8
685.516	679
685.94	656
686.342	660
686.766	659
687.168	657
687.571	669.2
687.995	665.8
688.398	644.8
688.822	658.6
689.225	680.6
689.628	681.6
690.052	661
690.456	669.4
690.88	654.2
691.284	650.8
691.687	674.2
692.112	655.8
692.515	671.8
692.919	664.8
693.344	671
693.747	663.6
694.173	661.4
694.577	679.8
694.98	668.4
695.406	654.4
695.81	666.6
696.214	669.2
696.64	671.2
697.044	671.6
697.448	670.6
697.874	667.8
698.279	663.4
698.684	655
699.11	661.6
699.514	670
699.919	660.2
700.324	647.4
700.75	662.4
701.156	659
701.561	681.8
701.987	667.8
702.393	673.6
702.798	675.8
703.203	667.2
703.63	663.4
704.036	663
704.442	666.2
704.847	660.4
705.274	659.6
705.68	663
706.086	678
706.492	650.2
706.92	669.8
707.326	676.8
707.732	665.4
708.139	658.4
708.545	655.6
708.973	660.8
709.38	670.8
709.786	649.8
710.193	682
710.6	677.6
711.028	653.4
711.435	656.4
711.842	660.6
712.249	652.8
712.656	654.6
713.064	674.6
713.492	650.4
713.9	649
714.307	657.4
714.715	655.4
715.123	674.4
715.53	670
715.938	672.2
716.367	668.6
716.775	665
717.184	655
717.592	663.6
718	672.4
718.408	704
718.816	708.6
719.225	666.8
719.633	671.6
720.042	662.6
720.472	657
720.881	677.4
721.29	666
721.699	654.2
722.108	668.6
722.517	667.8
722.926	659.2
723.335	667.4
723.744	658.6
724.154	662.8
724.563	661
724.973	657
725.382	667
725.792	659.4
726.202	652.8
726.612	681.4
727.022	661.4
727.432	651.2
779.813	653.8
780.223	703
780.634	660.6
781.044	655.4
781.454	659.6
781.865	683.6
782.276	648.4
782.686	656.6
783.097	657.4
783.508	656.8
783.919	658.8
784.33	668
784.741	673.6
785.152	655
785.563	650.6
785.974	651.2
786.386	666.6
786.776	658.2
787.188	658.2
787.599	651.2
788.011	661.8
788.423	667
788.835	657.6
789.247	641
789.659	659.8
790.071	657.8
790.483	709.8
790.874	654.6
791.286	667.8
791.699	653.6
792.111	660.6
792.524	662
792.937	661.6
793.349	654.4
793.741	650.6
794.154	651.6
794.567	682.4
794.98	650.4
795.393	645.2
795.785	675.2
796.198	661.6
796.612	667.6
797.026	654.8
797.439	642
797.831	656.8
798.245	645.2
798.659	669.8
799.073	648.4
799.487	656.8
799.88	655.6
800.294	658.8
800.708	660.6
801.123	662.2
801.516	677.4
801.93	644
802.345	653.8
802.76	660
803.153	681.8
803.568	668.4
803.983	672.8
804.377	661.8
804.792	650.6
805.207	640.2
805.601	657.2
806.016	695.8
806.432	646
806.826	694.2
807.242	669.4
807.658	658
808.052	647.6
808.468	650.6
808.884	658
809.279	652.4
809.695	670.2
810.111	692
810.506	656.2
810.922	675
811.339	661
811.734	660.6
812.151	653.6
812.546	658
812.963	651.6
813.38	667
813.776	660.6
814.193	677.8
814.589	649.4
815.006	661
815.402	651.4
815.82	654.2
816.237	653.4
816.633	664.6
817.051	649.6
817.448	661.4
817.866	651.4
818.262	691.2
818.68	650.4
819.077	648.4
819.495	656
819.892	709.8
820.311	652.4
820.708	659.6
821.127	664.6
821.524	660.8
821.943	663.6
822.34	689.4
822.759	660
823.157	662.2
823.576	663.2
823.974	661
824.393	728.8
824.791	658.2
825.189	643
825.609	651.8
826.007	644.8
826.427	647.4
826.826	657.8
827.246	657.8
827.644	634.8
828.043	664
828.463	653.6
828.862	672.8
829.261	677.2
829.682	644.8
830.081	664.6
830.502	653.8
830.901	661.2
831.301	647.4
831.722	642.8
832.121	658.6
832.521	652.4
832.943	660.6
833.342	657.8
833.742	648.4
834.164	658.2
834.564	651.6
834.965	658.6
835.386	652.6
835.787	661.4
836.188	655.4
836.588	661.2
837.01	665.2
837.411	656.2
837.812	670.4
838.213	648.4
838.636	654.8
839.037	732
839.438	660.2
839.84	660.2
840.263	661.4
840.664	667.4
841.066	666.2
841.468	657.6
841.891	654
842.293	667.8
842.695	657.4
843.098	673.2
843.5	664.6
843.902	659.4
844.326	656.4
844.729	660.4
845.131	670.6
845.534	663
845.937	682.8
846.34	677.6
846.764	649.2
847.167	665.2
847.571	645
847.974	659
848.377	650.2
848.781	706.4
849.184	664.8
849.588	656
849.992	661.4
850.396	658.6
850.821	678.8
851.225	661
851.63	660
852.034	671.6
852.438	655.6
852.843	710.6
853.247	649
853.652	654.4
854.057	690.4
854.462	659.4
854.867	666.2
855.272	686.4
855.677	657
856.082	655.6
856.487	648.2
856.893	667.4
857.298	653.2
857.704	659.4
858.11	656.8
858.516	665.8
858.922	659.6
859.328	669
859.734	654.4
860.14	666.6
860.525	662.6
860.931	650.2
861.338	649.8
861.745	669.6
862.151	668
862.558	658
862.965	645.6
863.372	652.8
863.779	649.6
864.186	672
864.572	656.4
864.98	683.2
865.387	689.2
865.795	658
866.203	667.4
866.61	646.4
867.018	666.8
867.405	665.2
867.813	651.6
868.221	658.2
868.63	653.2
869.038	664.2
869.425	696.4
869.834	657.6
870.243	653.8
870.652	646.4
871.039	660.4
871.448	654.6
871.857	654.4
872.266	658.6
872.654	662.2
873.064	643.6
873.473	667.6
873.883	648.6
874.271	642
874.681	662.4
875.091	648
875.48	664.4
875.89	682.2
876.3	654.6
876.689	643.4
877.1	660.4
877.51	652.8
877.9	679
878.31	655.4
878.721	694.4
879.111	651.6
879.522	647.4
879.933	641.8
880.323	646
880.734	647.6
881.125	644.4
881.536	648.6
881.948	653.4
882.338	651.8
882.75	659.8
883.141	652.2
883.553	657.8
883.944	682.6
884.356	664
884.769	645
885.16	656
885.573	658.8
885.964	647.8
886.377	656
886.768	643
887.181	658.8
887.573	651.2
887.987	660.2
888.378	670.8
888.792	660.4
889.184	712
889.598	651.8
889.99	662.2
890.383	649.4
890.797	646.6
891.19	666.6
891.604	642.2
891.997	641.4
892.411	641.6
892.805	653.4
893.198	656.2
893.613	636
894.006	648.8
894.421	639.6
894.815	648.2
895.209	645
895.624	699.8
896.018	668.2
896.412	657.4
896.828	660.4
897.222	664.8
897.617	659.4
898.033	668.6
898.427	661.2
898.822	649.8
899.239	649.6
899.634	645
900.029	676.8
900.424	653.2
900.841	648.2
901.236	669
901.632	663.2
902.027	728.8
902.445	668.6
902.841	654.8
903.237	662.4
903.633	672.2
904.05	664.4
904.447	661
904.843	669.8
905.24	661.2
905.636	645
906.033	648.6
906.451	669.8
906.848	640
907.246	652.6
907.643	656
908.04	662.4
908.438	668
908.835	666.4
909.254	645.2
909.652	655
910.05	646.6
910.448	646
910.846	658.6
911.244	644.2
911.643	657.4
912.041	653
912.44	677.2
912.839	639.4
913.237	654
913.636	646
914.035	660.2
914.434	660.8
914.834	671
915.233	667.2
915.633	651.4
916.032	644.4
916.432	649.2
916.832	678.4
917.232	647.6
917.632	642
918.032	659.8
918.432	650.6
918.833	652.6
919.233	655.4
919.634	649.4
920.035	665.4
920.436	643.6
920.837	653.4
921.238	656.6
921.639	648.2
922.019	666
922.42	656.4
922.822	663.4
923.224	660.8
923.625	652.6
924.027	655.6
924.429	680
924.81	663
925.212	655.6
925.615	654
926.017	656.8
926.42	671.8
926.801	662.4
927.204	653.6
927.607	666.8
928.01	667.4
928.413	657.2
928.795	639.6
929.199	646.4
929.602	652
930.006	653
930.388	643
930.792	650.8
931.196	648.6
931.579	693.2
931.983	646
932.388	701.6
932.771	641.2
933.176	641
933.58	656.8
933.964	662.2
934.369	643.6
934.774	667.8
935.158	643.8
935.563	651.8
935.947	657
936.353	664.6
936.759	658
937.143	659.2
937.549	660
937.934	668.2
938.34	672.8
938.746	655.8
939.131	650.4
939.538	650.2
939.923	663.6
940.33	647.2
940.716	649.4
941.123	661
941.508	675.2
941.916	677.6
942.302	657.2
942.709	641
943.096	651
943.503	661.2
943.89	651
944.298	646
944.685	676
945.072	647.2
945.48	664.2
945.867	644.4
946.276	649.4
946.663	683.4
947.051	669
947.46	664.4
947.848	662.2
948.257	654.8
948.645	653.4
949.033	645.8
949.443	648.2
949.831	700.4
950.22	642
950.63	666.8
951.018	684.4
951.407	652.4
951.796	648.6
952.207	659.6
952.596	659.2
952.985	656
953.375	700.8
953.786	648
954.176	649.6
954.566	665.8
954.956	645.8
955.367	643.6
955.758	672.8
956.148	634.4
956.539	665.8
956.929	643.4
957.341	651
957.732	652.2
958.123	656.8
958.515	644.4
958.906	661
959.297	657.4
959.689	647.8
960.102	647.4
960.494	662.8
960.886	658.4
961.278	650.8
961.67	679.8
962.062	697.4
962.455	649.2
962.847	646.4
963.24	647
963.633	662.2
964.026	648.8
964.419	655
964.812	665.6
965.206	650
965.599	659
965.993	648.4
966.386	648.8
966.78	658
967.174	664.2
967.569	640.8
967.963	642
968.357	648.8
968.752	653.4
969.146	647.2
969.541	646.2
969.936	648.4
970.331	643.6
970.705	647.8
971.1	645.6
971.496	660.6
971.892	642.2
972.287	649.4
972.683	647.4
973.079	651.4
973.454	666.6
973.85	661
974.247	669.2
974.643	690.4
975.04	657.8
975.415	654.4
975.812	634
976.209	655
976.607	644.6
976.982	654.8
977.38	669.6
977.778	654.4
978.175	650.2
978.552	662.2
978.95	642.4
979.348	654
979.725	699.8
980.123	647.2
980.522	655.6
980.899	644.6
981.298	641.2
981.697	651.6
982.075	643
982.474	646.4
982.852	653.4
983.251	654.4
983.651	643
984.029	658.6
984.429	649.8
984.808	640.2
985.208	643
985.609	641
985.987	644
986.388	638.4
986.768	652.4
987.168	643.8
987.548	659.6
987.949	660.6
988.329	657.6
988.731	640.6
989.111	651.8
989.491	643.8
989.893	646.4
990.273	658.6
990.676	641.6
991.057	648
991.459	647.6
991.84	641.8
992.221	640.2
992.624	668
993.006	651.6
993.388	651.6
993.791	661.2
994.173	662
994.576	694
994.959	646.2
995.341	650.2
995.724	656.4
996.128	649.8
996.511	653.4
996.894	655.4
997.298	659
997.681	658.8
998.065	651
998.448	655.8
998.854	663
999.237	638
999.621	656.8
1000.01	680.2
1000.39	652
1000.8	645.6
1001.18	659.8
1001.56	656.2
1001.95	661.8
1002.33	661.2
1002.72	654.8
1003.13	648.6
1003.51	648.4
1003.9	648.4
1004.28	667.8
1004.67	635
1005.06	651.2
1005.44	678.2
1005.83	639.6
1006.21	633.2
1006.6	645.4
1006.99	665.2
1007.37	647
1007.76	647.2
1060.12	640
1060.51	638.2
1060.89	653
1061.28	664.4
1061.67	661.6
1062.06	660.4
1062.45	649.8
1062.83	647.4
1063.22	657.4
1063.61	697.6
1064	648.4
1064.39	655
1064.78	650.8
1065.14	661.6
1065.53	654.2
1065.92	654.2
1066.31	648.4
1066.7	663.2
1067.09	668.2
1067.46	658.2
1067.85	653.2
1068.24	649.8
1068.63	657.2
1069.02	645.6
1069.39	660.2
1069.78	635
1070.17	641.2
1070.57	638.2
1070.93	647
1071.33	641
1071.72	659.4
1072.11	642.8
1072.48	644.6
1072.87	661
1073.26	652.4
1073.64	648
1074.03	641.2
1074.4	646.2
1074.79	643.2
1075.19	652
1075.56	652.6
1075.95	644.8
1076.34	650
1076.72	645.8
1077.11	653.6
1077.48	666
1077.88	659.4
1078.25	650
1078.64	658.2
1079.02	652.4
1079.41	660.6
1079.78	649
1080.18	649
1080.55	727.8
1080.95	636
1081.32	646.8
1081.72	660.6
1082.09	649.2
1082.49	645.2
1082.86	652.6
1083.24	634.8
1083.63	638.2
1084.01	651.4
1084.38	662.4
1084.78	640.4
1085.16	651.2
1085.55	660.4
1085.93	660.4
1086.31	643.4
1086.7	685.8
1087.08	653.8
1087.46	655.8
1087.83	646
1088.23	661
1088.61	658.8
1088.99	653.8
1089.36	654.8
1089.76	651.8
1090.14	654.4
1090.52	659.8
1090.9	641.8
1091.27	658.4
1091.67	678.2
1092.05	660.2
1092.43	645
1092.81	657.8
1093.19	660.6
1093.57	656.6
1093.95	645.2
1094.35	660.2
1094.73	650.8
1095.11	649.6
1095.49	647.2
1095.87	655
1096.25	658.6
1096.63	660
1097.01	650.8
1097.39	652.8
1097.77	643.6
1098.15	657
1098.53	632.4
1098.91	655.2
1099.29	649.4
1099.68	671
1100.06	661.4
1100.44	651
1100.82	645.6
1101.18	654.6
1101.56	651
1101.95	651.2
1102.33	652.2
1102.71	659.2
1103.1	647.8
1103.48	648.2
1103.86	645.2
1104.22	658.6
1104.61	655
1104.99	647.8
1105.38	639.4
1105.76	648.2
1106.12	650.2
1106.51	689
1106.89	670.2
1107.26	645.4
1107.64	658.4
1108.03	652
1108.41	644
1108.78	646.6
1109.16	651.6
1109.55	656.6
1109.91	636.2
1110.3	637.4
1110.69	659
1111.05	649.8
1111.44	658.8
1111.8	657.6
1112.19	656.4
1112.58	655.2
1112.94	649.6
1113.33	642.6
1113.7	634.6
1114.09	643.2
1114.45	639.2
1114.84	643
1115.21	660.8
1115.6	644.6
1115.96	651
1116.35	656.4
1116.72	641.4
1117.11	652.4
1117.48	648.6
1117.85	652.8
1118.24	661.6
1118.6	651
1118.99	639.2
1119.36	655.4
1119.73	647.6
1120.12	660.2
1120.49	645
1120.86	661.8
1121.25	654.4
1121.62	635
1121.99	640.8
1122.38	661.6
1122.76	647.8
1123.13	651.2
1123.5	652.6
1123.89	663
1124.26	638.2
1124.63	659.8
1125	645.6
1125.4	641.8
1125.77	635.8
1126.14	634.8
1126.51	648
1126.88	651.4
1127.26	650.4
1127.63	630
1128.02	643.6
1128.4	639.4
1128.77	637.2
1129.14	650.6
1129.52	644.8
1129.89	650.8
1130.26	642
1130.64	640
1131.01	645.6
