#lambda/nm	C1
208.295	556
208.67	496.4
209.045	460.6
209.419	457.2
209.794	690.6
210.169	669.2
210.544	802
210.919	702.8
211.295	683.6
211.67	688.4
212.045	685
212.421	686.6
212.796	728.2
213.172	682
213.547	685.6
213.923	680.4
214.299	678.2
214.675	697.6
215.051	688.4
215.427	700.2
215.803	712
216.179	706.8
216.555	696.2
216.932	695.6
217.308	691.2
217.684	696.6
218.061	694.6
218.438	695.4
218.814	685.4
219.191	697.4
219.568	679
219.945	681.4
220.322	698.6
220.699	699.6
221.076	704
221.453	693.2
221.83	683.6
222.208	686.8
222.585	685.6
222.962	696.8
223.34	700.8
223.717	696.4
224.095	685.2
224.473	690.6
224.851	688.6
225.229	687.8
225.607	706.8
225.985	682.2
226.363	692.8
226.741	694.8
227.119	690.2
227.497	702.2
227.876	675.8
228.254	697.4
228.633	697.4
229.011	692.8
229.39	691
229.769	688.8
230.148	699.8
230.527	704
230.905	687.2
231.284	693.4
231.664	678.8
232.043	703.4
232.422	704.8
232.801	680.2
233.181	695.6
233.56	692.4
233.94	690
234.319	680.2
234.699	689.2
235.079	742.4
235.458	730.6
235.838	712.6
236.218	682
236.598	675.6
236.978	680.2
237.358	687.4
237.738	691.4
238.119	684.4
238.499	673.4
238.88	690.8
239.26	709
239.641	677.2
240.021	688.6
240.402	689.4
240.783	681
241.163	693.2
241.544	694.2
241.925	700.2
242.306	702.8
242.687	690.4
243.069	688.6
243.45	696.6
243.831	679.8
244.212	682.6
244.594	732
244.975	701.2
245.357	698.8
245.739	683
246.12	694.6
246.502	706.8
246.884	694.6
247.266	689.2
247.648	693.8
248.03	720.4
248.412	701.2
248.794	695.8
249.176	687
249.559	705
249.941	675.4
250.323	675.8
250.706	687.2
251.089	692.6
251.471	692.4
251.854	687.4
252.237	683.6
252.62	697.8
253.002	691.8
253.385	689.6
253.769	704.6
254.152	684.2
254.535	694
254.918	681.6
255.301	689.4
255.685	681.4
256.068	680.8
256.452	713
256.835	690
257.219	696
257.603	697.4
257.986	675.8
258.37	706.8
258.754	678.4
259.138	700.4
259.522	692.8
259.906	688
260.29	696.8
260.675	688.8
261.059	696
261.443	683.4
261.828	695.6
262.212	705.8
262.597	678.2
262.981	687.6
263.366	699.2
263.751	690.4
264.136	687
264.521	682.6
264.906	684.6
265.291	708.4
265.676	690.4
266.061	703.4
266.446	711.8
266.831	684.2
267.217	714.2
267.602	703.6
267.987	691.8
268.373	678
268.759	697.2
269.144	698.6
269.53	685.6
269.916	681.6
270.302	684
270.688	695.4
271.074	690.4
271.46	703
271.846	734.2
272.232	691.6
272.618	683.6
273.004	686.6
273.391	702.8
273.777	703.6
274.164	699.8
274.55	714.8
274.937	697.6
275.324	692.6
275.71	694.6
276.097	706.6
276.484	676.6
276.871	686.6
277.258	701.2
277.645	682
278.032	685
278.419	689.6
278.807	702
279.194	680
279.581	687
279.969	695.2
280.356	701.6
280.744	680.8
281.131	721.4
281.519	698.8
281.907	691
282.295	683.4
282.682	702.8
283.07	691.2
283.458	703.4
283.846	701.6
284.235	699.4
284.623	711.6
285.011	689
285.399	695.4
285.788	698
286.176	676.8
286.565	700.8
286.953	688
287.342	692.6
287.731	685.2
288.119	681.2
288.508	688
288.897	687.8
289.286	681.4
289.675	696
290.064	696.8
290.453	686.6
290.821	693.4
291.21	710.4
291.599	690.4
291.989	690.6
292.378	695.8
292.768	709.4
293.157	695.8
293.547	698.6
293.936	691.8
294.326	682
294.716	694.2
295.106	679.8
295.496	698.8
295.886	690.8
296.276	681.2
296.666	682.8
297.056	680.2
297.446	677.6
297.836	713.2
298.227	691.8
298.617	694.2
299.008	698.4
299.398	693
299.789	688
300.179	686.4
300.57	706.4
300.961	689.4
301.352	684
301.742	702.6
302.133	693
302.524	691.6
302.915	697.2
303.307	692.6
303.698	708.4
304.089	697.8
304.48	691.8
304.872	697.6
305.263	696.6
305.655	685.6
306.046	699.4
306.438	699.2
306.829	689.2
307.221	707.6
307.613	693.6
308.005	711
308.397	706
308.789	722.2
309.181	714.8
309.573	716
309.965	705.6
310.357	694.4
310.749	714.2
311.142	677.8
311.534	695
311.926	703.4
312.319	697
312.711	682.8
313.104	700.6
313.497	697.8
313.889	730.8
314.282	710
314.675	719
315.068	699.4
315.461	705.4
315.854	727.8
316.247	707.4
316.64	701.2
317.033	692.8
317.405	706
317.798	698.6
318.192	690.2
318.585	683.8
318.979	699.8
319.372	682.4
319.766	698.2
320.16	701.6
320.553	717.2
320.947	718.4
321.341	689
321.735	682
322.129	680.8
322.523	721.4
322.917	685.8
323.311	710.6
323.705	699.8
324.099	697.4
324.494	717.4
324.888	710
325.282	691.8
325.677	713.2
326.071	704.2
326.466	714.4
326.861	702.6
327.255	706.6
327.65	713.2
328.045	721.2
328.44	699.8
328.835	698.6
329.23	698.6
329.625	725.4
330.02	688.2
330.415	725.6
330.81	692.8
331.206	694.6
331.601	687
331.996	702.4
332.37	719.6
332.766	676.8
333.161	718.8
333.557	697
333.953	688.2
334.348	958.6
334.744	694.4
335.14	684.8
335.536	691.8
335.932	700.6
336.328	698.4
336.724	701.2
337.12	684.2
337.516	702.2
337.913	697.2
338.309	701.4
338.705	689.2
339.102	703.2
339.498	677.8
339.895	704.2
340.291	691.4
340.688	693
341.085	684
341.481	695.6
341.878	694.2
342.275	715.2
342.672	685.8
343.069	687.6
343.466	671.4
343.842	696
344.239	682.4
344.636	695
345.033	689.4
345.431	689.2
345.828	690.6
346.225	681.2
346.623	739.2
347.02	694.2
347.418	703
347.816	709.2
348.213	684.8
348.611	702.4
349.009	681.2
349.407	707.6
349.805	683.4
350.203	686.2
350.601	706.8
350.999	693.2
351.397	749.2
351.795	690.2
352.193	701.8
352.57	701.2
352.969	710.6
353.367	683.2
353.766	683.8
354.164	693.2
354.563	710.6
354.961	697.4
355.36	683
355.759	695.6
356.158	682.6
356.557	679.2
356.956	682.4
357.355	684.6
357.754	698.4
358.153	692.8
358.552	714
358.951	685.2
359.35	696.2
359.75	687
360.149	678.6
360.527	669.2
360.926	681.2
361.326	687.8
361.726	696
362.125	676.6
362.525	694.6
362.925	683.6
363.325	686.6
363.724	688.6
364.124	680.8
364.524	682.8
364.924	684.2
365.324	699.2
365.725	665.4
366.125	691.6
366.525	691.2
366.904	682.6
367.304	668.2
367.705	705.2
368.105	703.6
368.506	690
368.906	688.6
369.307	683.6
369.708	689.6
370.108	671.2
370.509	686.4
370.91	675.2
371.311	684.8
371.712	686.4
372.113	669.4
372.514	667.8
372.894	683.4
373.295	671.8
373.696	699.2
374.097	691.6
374.499	722.4
374.9	676.6
375.301	669.2
375.703	688.4
376.105	674.2
376.506	688.4
376.908	690.2
377.309	693.8
377.711	691
378.113	682.2
378.493	682.2
378.895	682
379.297	704
379.699	672
380.102	700.6
380.504	689.6
380.906	687.4
381.308	712.6
381.71	685.6
382.113	694.8
382.515	681
382.918	684
383.299	689.6
383.701	691.2
384.104	679.6
384.507	663.8
384.909	686
385.312	672
385.715	671.8
386.118	692.8
386.521	669.8
386.924	697.4
387.327	678.8
387.709	671.6
388.112	671
388.515	681.8
388.918	683.2
389.322	685.6
389.725	683.6
390.129	708.8
390.532	691.4
390.936	689.2
391.339	683.2
391.743	686.6
392.125	675
392.529	695.8
392.933	699.2
393.337	677
393.74	686.8
394.144	687
394.548	677.2
394.953	677.6
395.357	691.8
395.761	680.4
396.144	675.2
396.548	678.2
396.952	684.2
397.357	673.8
397.761	676.8
398.166	687.6
398.57	675.2
398.975	671.8
399.379	684.8
399.763	739
400.168	676
400.572	675
400.977	678.6
401.382	708
401.787	690.2
402.192	699.2
402.597	702
403.002	675.6
403.386	698.6
403.791	697
404.197	678.4
404.602	680.4
405.007	686.8
405.413	684.8
405.818	684
406.224	683.8
406.608	680.4
407.014	672
407.42	706.4
407.825	678.6
408.231	705.2
408.637	690.6
409.043	697.6
409.449	678.2
409.834	679
410.24	688.2
410.646	698
411.052	691.2
411.458	685.8
411.865	703.4
412.271	700
412.677	692.8
413.062	695.2
413.469	678.4
413.875	707
414.282	703.4
414.689	687
415.095	692.4
415.502	672.6
415.888	686.6
416.294	661.8
416.701	732
417.108	679.8
417.515	692.4
417.923	677.4
418.33	712.4
418.715	703
419.123	686.2
419.53	685.2
419.937	687.4
420.345	698
420.752	677
421.16	718.2
421.546	687
421.953	702.4
422.361	669.4
422.769	686.2
423.177	682.6
423.585	714.4
423.992	713
424.379	699.8
424.787	696.6
425.195	716.6
425.603	687.8
426.011	691.4
426.419	702.4
426.806	678.6
427.214	685.6
427.623	700.2
428.031	705.2
428.44	692.8
428.848	703.2
429.235	711.8
429.644	687.4
430.053	695
430.461	702.4
430.87	717.8
431.279	701.2
431.666	683.8
432.075	693.4
432.484	702.2
432.893	694.4
433.302	720.8
433.711	747.4
434.099	692.8
434.508	684.8
434.918	680
435.327	706.4
435.737	696.2
436.125	691.6
436.534	697
436.944	699.2
437.353	702
437.763	724.2
438.173	697.6
438.561	721.8
438.971	688.4
439.381	700
439.791	706.4
440.201	684
440.589	704.2
440.999	715.2
441.409	710.4
441.819	693.6
442.23	715.2
442.619	719.8
443.029	716.4
443.439	717
443.85	726.6
444.26	731
444.649	728.4
445.06	728
445.471	718.8
445.881	716.2
446.292	747.8
446.682	746.6
447.092	721.8
447.503	787.4
447.914	722.6
448.325	719.8
448.715	727.2
449.126	719.8
449.537	727.4
449.948	726.2
450.338	739.2
450.75	730.4
451.161	735
451.572	739.6
451.984	725.8
452.374	719.6
452.786	730
453.197	740
453.609	744.2
453.999	719.2
454.411	725.2
454.823	748.2
455.235	737.4
455.647	734.4
456.037	746.8
456.449	719.2
456.862	739.4
457.274	735.2
457.665	724
458.077	740.6
458.489	773.8
458.902	744.4
459.293	741.8
459.705	741.2
460.118	727.4
460.53	750.2
460.921	733
461.334	738.6
461.747	745.8
462.16	747.4
462.551	752.6
462.964	744
463.377	722.8
463.79	735.4
464.182	746.8
464.595	726.4
465.008	744.4
465.421	752
465.813	748
466.226	745.6
466.64	741.4
467.053	796
467.445	749.6
467.859	772.6
468.272	750
468.686	756.4
469.078	744.2
469.492	735.2
469.906	747
470.298	759.2
470.712	740
471.126	806
471.54	723.6
471.933	733.8
472.347	741
472.761	740.4
473.175	739
473.568	737.4
473.982	739.2
474.397	746.8
474.79	738.4
475.204	742
475.619	745
476.033	747
476.426	736
476.841	729
477.256	766
477.649	736.6
478.064	727
478.479	729.6
478.872	727.6
479.287	726
479.702	731.6
480.118	745.2
480.511	738.2
480.927	742.6
481.342	727
481.736	743.8
482.151	729.4
482.566	753
482.96	742.4
483.376	750
483.792	733
484.186	746.2
484.602	733.8
485.017	730.6
485.412	745.2
485.827	741.4
486.243	740
486.638	773
487.054	743
487.47	753.8
487.865	736.8
488.281	732.2
488.697	721.4
489.092	735.2
489.508	728.4
489.925	745.2
490.32	715.8
490.736	734.2
491.153	724.4
491.548	728.2
491.964	745.2
492.381	725.8
492.776	735.2
493.193	735.4
493.61	730.8
494.006	727.4
494.422	725.2
494.84	721.4
495.235	745.2
495.652	731.8
496.069	726.6
496.465	731.8
496.883	720
497.3	755.8
497.696	721.6
498.113	729.6
498.509	715.2
498.927	701
499.344	705.4
499.741	715.6
500.158	726.8
500.576	730.8
500.973	724.4
501.39	715.8
501.787	705.8
502.205	727.4
502.623	716
503.02	704.2
503.438	718
503.856	721.8
504.253	725.6
504.671	710.4
505.068	714.6
505.486	717.6
505.905	732.8
506.302	724.4
506.72	728.4
507.118	703.2
507.536	726
507.955	712
508.352	721.6
508.771	707.4
509.169	716.6
509.587	706
510.006	710.6
510.404	699.6
510.823	703.8
511.221	705
511.64	708.6
512.038	720.4
512.457	714
512.877	711
513.275	699.6
513.694	703.2
514.092	702.4
514.512	712.8
514.91	698
515.33	708.4
515.749	711.8
516.148	714.4
516.568	713.6
516.966	700.2
517.386	704.8
517.785	699.2
518.205	701.4
518.603	710.4
519.024	704.2
519.444	706.2
519.843	709.4
520.263	720.6
520.662	710.8
521.082	702.8
521.481	706
521.902	701.4
522.301	709.8
522.722	707.6
523.121	696.4
523.542	699.6
523.963	696
524.362	702.8
524.783	704.2
525.183	699.4
525.604	704.2
526.003	690.8
526.425	690
526.824	701
527.246	708.2
527.646	716
528.067	699.8
528.467	698.6
528.888	701.8
529.289	690
529.71	696.6
530.11	693
530.532	692.4
530.932	691.6
531.354	685.2
531.755	739.8
532.176	707.4
532.577	694.4
532.999	698.2
533.4	691.2
533.822	703.4
534.223	695.4
534.645	691.6
535.046	685
535.468	696.4
535.869	710.2
536.292	687
536.693	739.6
537.115	690.8
537.516	689.2
537.939	689
538.34	710
538.742	705.2
539.165	700.2
539.566	689.8
539.989	684.4
540.391	694.8
540.814	692.8
541.216	693.6
541.639	688.4
542.041	705.2
542.464	683
542.866	689
543.268	685
543.691	693.8
544.093	696
544.517	712.2
544.919	674.8
545.343	710.8
545.745	674
546.147	687.8
546.571	689.8
546.974	677.2
547.398	684.2
547.8	704.2
548.224	681.2
548.627	674.8
549.03	693.8
549.454	673
549.857	673.6
550.281	676
550.684	682.4
551.087	702.6
551.512	688.8
551.915	695
552.34	689
552.743	680.6
553.146	687.2
553.571	690.2
553.975	703.2
554.399	676
554.803	741
555.207	687.4
555.632	680.6
556.036	685.4
556.461	685.8
556.865	681
557.268	672
557.694	684.2
558.098	698.4
558.502	695
558.927	672.4
559.332	676.6
559.736	672.2
560.162	686.4
560.566	679.6
560.992	685
561.396	684
561.801	671.6
562.227	680.6
562.631	691.2
563.036	678.6
563.462	697
563.867	686
564.272	660.6
564.698	692.2
565.103	673.2
565.508	703.8
565.935	678.8
566.34	676.8
566.745	696
567.172	674
567.577	698.8
567.982	689.6
568.409	681.2
568.815	661.2
569.22	680.2
569.626	684.2
570.053	665.4
570.459	684.6
570.865	686.2
571.292	694.8
571.698	682.4
572.104	667
572.531	682
572.937	690.6
573.343	678
573.75	682.8
574.177	676.8
574.583	687
574.99	678.2
575.396	686.6
575.824	682.4
576.231	679.4
576.637	666
577.065	701.2
577.472	681.8
577.879	674.6
578.286	689
578.714	667.4
579.121	675.8
579.528	673.8
579.935	681.2
580.364	675.6
580.771	659.8
581.178	672
581.585	677.4
582.014	684.8
582.421	672.6
582.829	675.4
583.236	686
583.644	665.2
584.073	671.6
584.481	672.4
584.889	663.8
585.296	678.2
585.726	670.8
586.134	679.4
586.542	672
586.95	692
587.358	666.4
587.787	673.2
588.196	669.4
588.604	671
589.012	685.8
589.421	669.4
589.851	673
590.259	685
590.668	670.2
591.076	715
591.485	669.2
591.894	678.2
592.324	689.4
592.733	690.2
593.142	669
593.551	670.6
593.96	707.4
594.369	666.2
594.8	659.6
595.209	674.2
595.618	655.2
596.028	663.2
596.437	654.8
596.847	677.4
597.256	683.6
597.687	672.2
598.097	666.6
598.507	652.8
598.917	672.6
599.327	685.2
599.736	679.6
600.146	676.2
600.556	675.6
600.988	690.2
601.398	663.6
601.808	680.6
602.219	654.8
602.629	669.2
603.039	662
603.45	702.2
603.86	667.4
604.271	691.6
604.703	666.6
605.114	668.6
605.525	666
605.935	676.8
606.346	702
606.757	666.8
607.168	667.6
607.579	662.2
607.99	682.2
608.402	669
608.813	677.2
609.224	676.2
609.636	662.4
610.047	658.6
610.48	667.8
610.892	676
611.303	686.6
611.715	667.6
612.127	663
612.539	660.8
612.95	667.8
613.362	653.4
613.774	664.2
614.186	663.6
614.599	657.6
615.011	678
615.423	668.6
615.835	665.4
616.248	649.2
616.66	676.2
617.073	654.8
617.485	671.4
617.898	675
618.311	676.6
618.723	669
619.136	696
619.549	685.8
619.962	697
620.375	660
620.788	669.8
621.201	664.2
621.614	679.8
622.028	671
622.441	677
622.854	683.8
623.268	665
623.681	679.8
624.095	667.8
624.509	679.8
624.922	685.4
625.336	658.8
625.728	665.8
626.142	683.8
626.556	686.6
626.97	681
627.384	666.8
627.799	671
628.213	677.2
628.627	672
629.041	662.8
629.456	660
629.87	666.2
630.285	680.2
630.699	679
631.093	659.6
631.507	672.6
631.922	665.8
632.337	681
632.752	660.2
633.167	674.6
633.582	663
633.997	668.2
634.412	665.8
634.806	668.8
635.221	653.2
635.637	677.2
636.052	653.8
636.468	673.2
636.883	685
637.299	674.4
637.715	650
638.109	664.2
638.525	648.4
638.941	685.8
639.357	679
639.773	680.4
640.189	658.8
640.584	670.6
641	667.6
641.416	658.2
641.832	663.2
642.249	671.8
642.665	661
643.06	674
643.477	677.4
643.894	654
644.31	671.8
644.727	658
645.123	668.6
645.54	659.2
645.957	669.8
646.374	680.2
646.77	672
647.187	698
647.604	665.8
648.021	660.6
648.439	654.2
648.835	674.2
649.252	663.6
649.67	667.2
650.088	668.6
650.484	665
650.902	668.4
651.32	677.4
651.738	678.2
652.134	667.2
652.552	688.8
652.971	674.2
653.389	667.2
653.786	680.4
654.204	694.2
654.622	656.8
655.019	677.6
655.438	675.6
655.857	671.8
656.275	668.6
656.673	661.2
657.091	739.4
657.51	663.8
657.908	672.8
658.327	682.8
658.746	646.6
659.144	667.6
659.563	684.8
659.982	666
660.38	659.4
660.8	669.8
661.219	684.6
661.617	669.8
662.037	665.8
662.457	681.4
662.855	654
663.275	691.6
663.695	673.8
664.094	662.6
664.514	673
664.934	663.6
665.333	675.4
665.753	658.8
666.152	656.8
666.572	656.8
666.993	684
667.392	654.4
667.812	659.6
668.212	661.4
668.632	672.6
669.053	666.6
669.453	670.2
669.874	669
670.273	672.4
670.694	656.8
671.116	675
671.515	672.2
671.937	669.6
672.337	664.2
672.758	661
673.158	678.8
673.58	660.6
673.98	674.4
674.402	673.4
674.824	661.4
675.224	660.8
675.646	648.8
676.047	658.2
676.469	670.6
676.869	677.2
677.292	664
677.693	665.4
678.115	663.8
678.516	684
678.939	673.4
679.34	671.2
679.762	681.2
680.164	677
680.586	666.4
680.988	665.8
681.411	700.6
681.812	656.2
682.236	658
682.637	665.2
683.061	648.4
683.462	662.4
683.864	654.6
684.288	667.6
684.69	654.2
685.114	670.4
685.516	677.4
685.94	660.6
686.342	667.2
686.766	658
687.168	654.2
687.571	676.6
687.995	668.4
688.398	649.2
688.822	653.4
689.225	687.2
689.628	682
690.052	661.8
690.456	668.2
690.88	666
691.284	668.6
691.687	678.4
692.112	651.2
692.515	653.8
692.919	664.2
693.344	671.2
693.747	662.4
694.173	664.8
694.577	682.6
694.98	674.4
695.406	651.4
695.81	667.6
696.214	667.8
696.64	667.2
697.044	663.4
697.448	679
697.874	662.4
698.279	665.8
698.684	662.2
699.11	654.6
699.514	667
699.919	662.4
700.324	654.6
700.75	666.4
701.156	669
701.561	675.8
701.987	666.6
702.393	670
702.798	680.2
703.203	668.2
703.63	659.4
704.036	658.4
704.442	663.2
704.847	660.4
705.274	670
705.68	656.8
706.086	677.8
706.492	650.4
706.92	664.4
707.326	672.2
707.732	657.4
708.139	650.8
708.545	658
708.973	653.8
709.38	666.2
709.786	654
710.193	682.4
710.6	664.4
711.028	659.2
711.435	660
711.842	658
712.249	658.6
712.656	670.8
713.064	670
713.492	654.2
713.9	658.4
714.307	667.8
714.715	666
715.123	669.8
715.53	661.6
715.938	676.6
716.367	663.6
716.775	663.2
717.184	659.2
717.592	658
718	672.6
718.408	712.8
718.816	708.8
719.225	668.6
719.633	662
720.042	659.8
720.472	659.2
720.881	686.6
721.29	672.8
721.699	654
722.108	673
722.517	662
722.926	670.4
723.335	674
723.744	663.6
724.154	669.8
724.563	657.4
724.973	658.6
725.382	657
725.792	655.6
726.202	663.8
726.612	694.4
727.022	658.6
727.432	669.2
779.813	662
780.223	710.4
780.634	660.6
781.044	655.4
781.454	662.4
781.865	687.8
782.276	655.6
782.686	673.8
783.097	657.8
783.508	665.2
783.919	659.4
784.33	670.6
784.741	678.8
785.152	656.2
785.563	650.2
785.974	648.8
786.386	668.6
786.776	649
787.188	664.6
787.599	652.2
788.011	665.2
788.423	665.6
788.835	656
789.247	648.4
789.659	661.2
790.071	660
790.483	709
790.874	656.2
791.286	669.2
791.699	656.6
792.111	669.8
792.524	670.8
792.937	667.2
793.349	653.8
793.741	653
794.154	646.4
794.567	678
794.98	658.2
795.393	649.6
795.785	675.6
796.198	656.6
796.612	663.8
797.026	657.8
797.439	646
797.831	658.6
798.245	649.8
798.659	655.8
799.073	655.6
799.487	650
799.88	662.4
800.294	665.2
800.708	665.4
801.123	654.6
801.516	680.8
801.93	645.4
802.345	655
802.76	659.6
803.153	680.8
803.568	673.8
803.983	671.2
804.377	661.8
804.792	644.4
805.207	654.8
805.601	654.6
806.016	700.2
806.432	649.8
806.826	703.6
807.242	676.2
807.658	657.2
808.052	661.2
808.468	659.8
808.884	651
809.279	663
809.695	680
810.111	691.2
810.506	664.2
810.922	674.6
811.339	656.6
811.734	663.2
812.151	659.4
812.546	651.2
812.963	651.2
813.38	671.6
813.776	661.2
814.193	689.8
814.589	661
815.006	656.8
815.402	650.2
815.82	657.6
816.237	652.6
816.633	668
817.051	646.2
817.448	663.2
817.866	659.6
818.262	682
818.68	650.6
819.077	656.2
819.495	665.2
819.892	705
820.311	648.4
820.708	660.2
821.127	659
821.524	670.8
821.943	660
822.34	682
822.759	661.8
823.157	653.6
823.576	677.6
823.974	672
824.393	735.8
824.791	659.6
825.189	655
825.609	653
826.007	661.2
826.427	648.2
826.826	660
827.246	666.8
827.644	649.8
828.043	670.2
828.463	660.6
828.862	668.4
829.261	666.4
829.682	654
830.081	666
830.502	643.8
830.901	660.4
831.301	659
831.722	651.8
832.121	662.8
832.521	653
832.943	660.4
833.342	657
833.742	650.4
834.164	654.8
834.564	648.2
834.965	665.8
835.386	653.8
835.787	660
836.188	664.2
836.588	658.2
837.01	660.8
837.411	654.4
837.812	665.2
838.213	668.6
838.636	661.2
839.037	731.2
839.438	658.6
839.84	663.4
840.263	663.4
840.664	656.6
841.066	659.8
841.468	668.8
841.891	652.6
842.293	678.4
842.695	664.4
843.098	670
843.5	651.6
843.902	665
844.326	664
844.729	656.4
845.131	673.4
845.534	662.8
845.937	669
846.34	680.6
846.764	652.4
847.167	666
847.571	652.2
847.974	661
848.377	654.4
848.781	708.2
849.184	677.4
849.588	653.8
849.992	655.2
850.396	669.6
850.821	676.6
851.225	661
851.63	654.4
852.034	672.8
852.438	662.6
852.843	802
853.247	652.8
853.652	662.4
854.057	675.2
854.462	659.8
854.867	655.6
855.272	690
855.677	667
856.082	649.2
856.487	650.4
856.893	674.8
857.298	654.8
857.704	653.2
858.11	664.8
858.516	667.6
858.922	657.6
859.328	674
859.734	662.2
860.14	665
860.525	663.4
860.931	651.8
861.338	657.8
861.745	655.2
862.151	657.2
862.558	658.4
862.965	645.6
863.372	651.8
863.779	648.2
864.186	683
864.572	666.4
864.98	675.6
865.387	695.2
865.795	653.2
866.203	672.4
866.61	651.4
867.018	669.8
867.405	660.2
867.813	664.2
868.221	651.2
868.63	647
869.038	663
869.425	703
869.834	660.2
870.243	646.8
870.652	641.4
871.039	657.2
871.448	657.2
871.857	666.2
872.266	653
872.654	658.8
873.064	649.2
873.473	670.4
873.883	650.4
874.271	655.8
874.681	673.8
875.091	635.2
875.48	673.8
875.89	683.2
876.3	658
876.689	639
877.1	659.6
877.51	663
877.9	687
878.31	661.8
878.721	694.4
879.111	664.6
879.522	656.8
879.933	650
880.323	649
880.734	655
881.125	662.8
881.536	661
881.948	649.6
882.338	668.2
882.75	665.2
883.141	650
883.553	661.2
883.944	694
884.356	673.8
884.769	667.8
885.16	661
885.573	654.4
885.964	648.4
886.377	660.4
886.768	651.2
887.181	654
887.573	642.6
887.987	665.4
888.378	666.4
888.792	660.6
889.184	712.2
889.598	647.4
889.99	661.6
890.383	652.6
890.797	640.6
891.19	668.4
891.604	649.2
891.997	648.6
892.411	653.2
892.805	658.2
893.198	650.8
893.613	641.8
894.006	653.6
894.421	649.8
894.815	657.8
895.209	652.6
895.624	701
896.018	672.8
896.412	661.4
896.828	651.8
897.222	664.4
897.617	657.4
898.033	676.6
898.427	673
898.822	662.6
899.239	636.8
899.634	650.6
900.029	679.8
900.424	658.4
900.841	639.2
901.236	672.6
901.632	666.2
902.027	718.8
902.445	661.8
902.841	652
903.237	654.8
903.633	673
904.05	674.2
904.447	664.6
904.843	667.6
905.24	655
905.636	645.6
906.033	648.6
906.451	674
906.848	657.8
907.246	648
907.643	660.4
908.04	662.4
908.438	673
908.835	656.8
909.254	655
909.652	667.8
910.05	666.4
910.448	645.2
910.846	664.8
911.244	648.4
911.643	664.8
912.041	654
912.44	672.4
912.839	653.4
913.237	661.8
913.636	642.8
914.035	666.2
914.434	657.8
914.834	676
915.233	672.6
915.633	658.2
916.032	654.4
916.432	651.8
916.832	663.4
917.232	650.4
917.632	644.6
918.032	670.6
918.432	655.8
918.833	648.4
919.233	654.8
919.634	648.2
920.035	665.8
920.436	656.4
920.837	663
921.238	649.4
921.639	653.4
922.019	657.8
922.42	666.4
922.822	660.8
923.224	659.2
923.625	653.2
924.027	653.8
924.429	675.6
924.81	657.2
925.212	658
925.615	651
926.017	656.8
926.42	663
926.801	655.8
927.204	654.2
927.607	657.4
928.01	672.2
928.413	656
928.795	646
929.199	656.8
929.602	644.4
930.006	650.6
930.388	658
930.792	668.6
931.196	658.8
931.579	690.8
931.983	653.4
932.388	706
932.771	655.4
933.176	644.6
933.58	661.4
933.964	668.4
934.369	643.6
934.774	661.4
935.158	656.4
935.563	652.4
935.947	655.4
936.353	662
936.759	657
937.143	659.8
937.549	662.6
937.934	657.6
938.34	670
938.746	640.2
939.131	653.8
939.538	650.8
939.923	660.4
940.33	647.8
940.716	657.4
941.123	662.2
941.508	668.8
941.916	675.6
942.302	660.2
942.709	648.8
943.096	649.2
943.503	653.6
943.89	649
944.298	650.2
944.685	688.2
945.072	651.4
945.48	673
945.867	660.8
946.276	655.2
946.663	687.6
947.051	672.4
947.46	676.6
947.848	656.8
948.257	650.6
948.645	660.6
949.033	658.8
949.443	642.6
949.831	691.2
950.22	651
950.63	662.8
951.018	687.2
951.407	658
951.796	644.4
952.207	668
952.596	666.6
952.985	650.2
953.375	708.6
953.786	652.2
954.176	640.6
954.566	665.2
954.956	653.8
955.367	662
955.758	675.4
956.148	655.4
956.539	664.2
956.929	652
957.341	651.8
957.732	657.2
958.123	661.6
958.515	649
958.906	664.6
959.297	648.8
959.689	654
960.102	653.8
960.494	652.4
960.886	655
961.278	645.4
961.67	674.2
962.062	684.8
962.455	652
962.847	641.6
963.24	648.4
963.633	650.2
964.026	638.8
964.419	643.8
964.812	662.2
965.206	647.8
965.599	660
965.993	651.8
966.386	649.2
966.78	661.4
967.174	659.8
967.569	640.4
967.963	649.4
968.357	649.2
968.752	654.4
969.146	647
969.541	649
969.936	649.4
970.331	653.8
970.705	651.8
971.1	659
971.496	664.2
971.892	641.4
972.287	657.6
972.683	650
973.079	653
973.454	674.8
973.85	657.6
974.247	665.8
974.643	684.2
975.04	658.2
975.415	660
975.812	647.8
976.209	652.2
976.607	645.8
976.982	662
977.38	678
977.778	654.6
978.175	651
978.552	652
978.95	655.4
979.348	664.2
979.725	701
980.123	656.8
980.522	652.6
980.899	653.2
981.298	651.8
981.697	655.2
982.075	652.8
982.474	653.2
982.852	657
983.251	657.6
983.651	646.4
984.029	660.6
984.429	650.8
984.808	644.8
985.208	649
985.609	636.4
985.987	637
986.388	653.6
986.768	656.8
987.168	647.4
987.548	658
987.949	656
988.329	652.8
988.731	638.6
989.111	652
989.491	641.6
989.893	659.4
990.273	668.2
990.676	639.6
991.057	643.2
991.459	655.6
991.84	653.8
992.221	642.8
992.624	669
993.006	665
993.388	648.8
993.791	663.8
994.173	654.8
994.576	686.8
994.959	642.8
995.341	655.2
995.724	656.8
996.128	651.2
996.511	666.2
996.894	644
997.298	649
997.681	662.4
998.065	657
998.448	652.6
998.854	665
999.237	641.6
999.621	662.4
1000.01	668
1000.39	643.6
1000.8	643.8
1001.18	657.4
1001.56	660
1001.95	673.8
1002.33	665.8
1002.72	653.8
1003.13	656.2
1003.51	648.8
1003.9	653.6
1004.28	669.6
1004.67	648.6
1005.06	653.8
1005.44	684.4
1005.83	641.4
1006.21	657.4
1006.6	649.4
1006.99	656.6
1007.37	672
1007.76	658.6
1060.12	653.2
1060.51	650.2
1060.89	664.8
1061.28	662.8
1061.67	661.8
1062.06	658.2
1062.45	654
1062.83	646.2
1063.22	655.4
1063.61	702.2
1064	662.2
1064.39	654.6
1064.78	646.2
1065.14	661.8
1065.53	662.2
1065.92	659.2
1066.31	644.4
1066.7	662.6
1067.09	665.8
1067.46	658.8
1067.85	658
1068.24	659.2
1068.63	653.2
1069.02	649.6
1069.39	662.6
1069.78	650.6
1070.17	652.2
1070.57	651.2
1070.93	651.6
1071.33	647.4
1071.72	657.4
1072.11	642.4
1072.48	649.2
1072.87	650.6
1073.26	660.8
1073.64	646.8
1074.03	642.4
1074.4	646.8
1074.79	646.2
1075.19	650.2
1075.56	652
1075.95	658.6
1076.34	650.4
1076.72	653.6
1077.11	655.4
1077.48	664
1077.88	662.4
1078.25	653.4
1078.64	667
1079.02	654
1079.41	665.4
1079.78	647.4
1080.18	646.4
1080.55	733
1080.95	656.8
1081.32	647.4
1081.72	663.8
1082.09	661
1082.49	646.6
1082.86	647.4
1083.24	647.4
1083.63	638.2
1084.01	648.4
1084.38	660.6
1084.78	645.6
1085.16	659.2
1085.55	665.8
1085.93	668.6
1086.31	638.6
1086.7	680.8
1087.08	651.2
1087.46	649.2
1087.83	647.8
1088.23	660.8
1088.61	644.4
1088.99	655.6
1089.36	649.4
1089.76	654.6
1090.14	646.6
1090.52	653.2
1090.9	642
1091.27	665.8
1091.67	687.8
1092.05	668.4
1092.43	648.8
1092.81	656.4
1093.19	656.2
1093.57	647.8
1093.95	652
1094.35	660.8
1094.73	666
1095.11	648.2
1095.49	650.8
1095.87	649
1096.25	664.2
1096.63	673.4
1097.01	652.8
1097.39	659.6
1097.77	649.4
1098.15	649.6
1098.53	649
1098.91	647.4
1099.29	655.8
1099.68	669.6
1100.06	665.8
1100.44	652.6
1100.82	654.8
1101.18	660.6
1101.56	653.2
1101.95	650.8
1102.33	651.8
1102.71	655.8
1103.1	648.6
1103.48	637.8
1103.86	640.4
1104.22	653.8
1104.61	653.4
1104.99	655.8
1105.38	647.8
1105.76	653.4
1106.12	650.6
1106.51	699.8
1106.89	654
1107.26	655.2
1107.64	669.8
1108.03	646
1108.41	653.8
1108.78	646.4
1109.16	649.6
1109.55	667
1109.91	638.8
1110.3	635.2
1110.69	664.8
1111.05	651.8
1111.44	646
1111.8	650.2
1112.19	654.2
1112.58	658.4
1112.94	648.8
1113.33	638.8
1113.7	642
1114.09	644
1114.45	652.2
1114.84	646.8
1115.21	662.6
1115.6	646.4
1115.96	647.2
1116.35	656
1116.72	648.6
1117.11	654.2
1117.48	644.4
1117.85	654.8
1118.24	680.2
1118.6	650.8
1118.99	644.4
1119.36	653.2
1119.73	646.4
1120.12	653.6
1120.49	644
1120.86	661
1121.25	647.8
1121.62	638.6
1121.99	647.4
1122.38	657.4
1122.76	650.8
1123.13	639
1123.5	655
1123.89	662.6
1124.26	644
1124.63	658.6
1125	655.2
1125.4	641.6
1125.77	646.4
1126.14	636.8
1126.51	655.2
1126.88	650.8
1127.26	651.2
1127.63	627
1128.02	637.2
1128.4	639
1128.77	645.8
1129.14	649
1129.52	652.6
1129.89	651.2
1130.26	646.4
1130.64	639.4
1131.01	649.2
