#lambda/nm	C1
208.295	561
208.67	501.8
209.045	461.4
209.419	463.8
209.794	682
210.169	665
210.544	793.2
210.919	689.2
211.295	678
211.67	685.8
212.045	682
212.421	678.4
212.796	718.6
213.172	676.8
213.547	683.2
213.923	682
214.299	676.4
214.675	681
215.051	690.4
215.427	693.2
215.803	706.6
216.179	686
216.555	685.4
216.932	686.6
217.308	683.4
217.684	691.6
218.061	687
218.438	695.4
218.814	684.4
219.191	692.4
219.568	681
219.945	688
220.322	689.2
220.699	695
221.076	696.2
221.453	684.4
221.83	687.6
222.208	673.6
222.585	675.8
222.962	680.2
223.34	686.8
223.717	678.6
224.095	682
224.473	678.8
224.851	680.4
225.229	670.8
225.607	697.6
225.985	669.8
226.363	691
226.741	688.2
227.119	677.8
227.497	702.2
227.876	666.6
228.254	691.2
228.633	679.8
229.011	680
229.39	691.6
229.769	697.8
230.148	694.2
230.527	704
230.905	686
231.284	683.4
231.664	678.8
232.043	697.2
232.422	687
232.801	680.8
233.181	688.8
233.56	678.4
233.94	684.4
234.319	667.4
234.699	682.4
235.079	722.8
235.458	727.2
235.838	711.4
236.218	677.8
236.598	666
236.978	671.4
237.358	679.2
237.738	676.8
238.119	694.2
238.499	671.8
238.88	682.2
239.26	704.2
239.641	665.6
240.021	677.6
240.402	683.8
240.783	676.4
241.163	690.2
241.544	684.8
241.925	684.4
242.306	700.2
242.687	675.6
243.069	683
243.45	689.6
243.831	676.8
244.212	690.4
244.594	725.4
244.975	686.6
245.357	685.2
245.739	688.4
246.12	687.4
246.502	696
246.884	683.8
247.266	683.2
247.648	687
248.03	703.8
248.412	693.4
248.794	697.8
249.176	675.4
249.559	698
249.941	677.8
250.323	665
250.706	687.6
251.089	685.8
251.471	687.6
251.854	683
252.237	679
252.62	692.2
253.002	686.6
253.385	691.8
253.769	702.4
254.152	679.4
254.535	692.4
254.918	686
255.301	685.4
255.685	684.4
256.068	672
256.452	712
256.835	690.8
257.219	686
257.603	695.2
257.986	673.6
258.37	687.2
258.754	668.8
259.138	689.6
259.522	698.4
259.906	668.8
260.29	685.8
260.675	685
261.059	694.2
261.443	668.6
261.828	687.4
262.212	691
262.597	673.4
262.981	673
263.366	683.6
263.751	684
264.136	679.2
264.521	674.6
264.906	675.8
265.291	691.8
265.676	673.4
266.061	687.2
266.446	704.2
266.831	686.2
267.217	714
267.602	682.2
267.987	689
268.373	679.6
268.759	699.2
269.144	693.8
269.53	682.4
269.916	686.6
270.302	680.4
270.688	681.8
271.074	687.2
271.46	702.8
271.846	724.6
272.232	679.2
272.618	672.2
273.004	679.4
273.391	705.4
273.777	700.8
274.164	685.4
274.55	705.2
274.937	688.2
275.324	680.2
275.71	693
276.097	693
276.484	683.2
276.871	693.2
277.258	685
277.645	670.4
278.032	690
278.419	677.2
278.807	694.4
279.194	674.8
279.581	676.8
279.969	688.6
280.356	683.4
280.744	681.8
281.131	707.8
281.519	683.4
281.907	677.6
282.295	679.6
282.682	693.6
283.07	681.6
283.458	692
283.846	701.4
284.235	705.2
284.623	694.4
285.011	676.8
285.399	685.8
285.788	680.8
286.176	667.4
286.565	699
286.953	681
287.342	683.4
287.731	679.6
288.119	682.6
288.508	684
288.897	680.8
289.286	669.2
289.675	690
290.064	693.8
290.453	677.2
290.821	680.4
291.21	703.2
291.599	682.8
291.989	687.8
292.378	695.2
292.768	710
293.157	689.2
293.547	689.8
293.936	694.4
294.326	675.8
294.716	685.6
295.106	678.4
295.496	681.8
295.886	699.2
296.276	689.8
296.666	676
297.056	676.2
297.446	668
297.836	705.4
298.227	684
298.617	685.6
299.008	704.8
299.398	680.6
299.789	681.4
300.179	693.6
300.57	711.6
300.961	690
301.352	680.8
301.742	708.2
302.133	688.8
302.524	684
302.915	685
303.307	677.6
303.698	693.4
304.089	704.2
304.48	679.4
304.872	689.2
305.263	690
305.655	684.4
306.046	685.4
306.438	691.2
306.829	681.2
307.221	702.6
307.613	690.4
308.005	697.6
308.397	693.4
308.789	714.6
309.181	714.2
309.573	706
309.965	696.2
310.357	680
310.749	700
311.142	677.2
311.534	685.2
311.926	690.6
312.319	698.4
312.711	671.6
313.104	702.4
313.497	678
313.889	720.4
314.282	705.4
314.675	713.2
315.068	684.2
315.461	697.4
315.854	724
316.247	690.4
316.64	689
317.033	683.6
317.405	697.6
317.798	686.6
318.192	697
318.585	673
318.979	690.8
319.372	677.6
319.766	681.4
320.16	704.6
320.553	706.4
320.947	703.6
321.341	682.8
321.735	691.8
322.129	672.8
322.523	710.2
322.917	672.6
323.311	704.4
323.705	689.2
324.099	691.6
324.494	709.4
324.888	700
325.282	689.8
325.677	708
326.071	698.6
326.466	707.2
326.861	694
327.255	696
327.65	702
328.045	709.6
328.44	699
328.835	692.8
329.23	679.8
329.625	723.8
330.02	678.2
330.415	707.4
330.81	692.6
331.206	689.8
331.601	678.2
331.996	695.6
332.37	715.6
332.766	682.8
333.161	712.4
333.557	685
333.953	690
334.348	1057.8
334.744	691
335.14	680.6
335.536	683.4
335.932	690.2
336.328	681
336.724	699.4
337.12	679.8
337.516	692
337.913	690.4
338.309	704.6
338.705	690.4
339.102	700
339.498	682
339.895	704.6
340.291	681
340.688	691.2
341.085	685.8
341.481	678.6
341.878	688
342.275	708.4
342.672	680.8
343.069	678
343.466	673.6
343.842	694
344.239	682.2
344.636	694
345.033	678.2
345.431	679.8
345.828	689.2
346.225	680
346.623	727
347.02	698.4
347.418	693.2
347.816	703.2
348.213	674.4
348.611	693
349.009	683.2
349.407	700
349.805	671.2
350.203	677
350.601	700.6
350.999	685.8
351.397	754.6
351.795	689.4
352.193	696.6
352.57	692.4
352.969	690.2
353.367	670.4
353.766	685.2
354.164	682.8
354.563	695
354.961	687.4
355.36	678.6
355.759	690
356.158	682.8
356.557	682
356.956	675.8
357.355	671.6
357.754	687.8
358.153	693.4
358.552	718
358.951	686.2
359.35	693.8
359.75	682.4
360.149	669.6
360.527	662
360.926	669.2
361.326	684.4
361.726	682.6
362.125	672.2
362.525	699.6
362.925	683.2
363.325	690.4
363.724	679
364.124	675.4
364.524	673.6
364.924	671
365.324	695
365.725	663
366.125	681.6
366.525	668.2
366.904	671.4
367.304	656.6
367.705	696.2
368.105	694
368.506	672.8
368.906	684.2
369.307	674.8
369.708	687.4
370.108	676.8
370.509	684.4
370.91	678.6
371.311	683
371.712	671.8
372.113	671.4
372.514	677.2
372.894	676.4
373.295	680.4
373.696	695.8
374.097	688.6
374.499	716.2
374.9	688
375.301	670.4
375.703	679
376.105	673.2
376.506	684.4
376.908	688.4
377.309	678
377.711	687
378.113	675
378.493	682
378.895	676.8
379.297	697.6
379.699	661.8
380.102	684
380.504	683
380.906	671.8
381.308	708
381.71	673.4
382.113	682.6
382.515	676.6
382.918	687.4
383.299	679
383.701	689.2
384.104	684.8
384.507	653
384.909	669.8
385.312	663.8
385.715	660.6
386.118	665
386.521	668.6
386.924	689
387.327	662.8
387.709	658.8
388.112	652.2
388.515	672.8
388.918	670
389.322	682.6
389.725	668.6
390.129	699
390.532	686.4
390.936	666.6
391.339	671.6
391.743	680.8
392.125	663.8
392.529	687.4
392.933	688.6
393.337	677
393.74	676
394.144	682.8
394.548	671.8
394.953	677.2
395.357	682.4
395.761	675
396.144	675.8
396.548	676.6
396.952	677.8
397.357	676
397.761	675
398.166	681.8
398.57	675.8
398.975	667
399.379	684.6
399.763	740.2
400.168	672.2
400.572	677.4
400.977	681
401.382	700.6
401.787	683
402.192	689.4
402.597	689.6
403.002	661.8
403.386	689.8
403.791	694.6
404.197	671.4
404.602	685.4
405.007	680
405.413	671.6
405.818	673.8
406.224	674.8
406.608	678.8
407.014	674.8
407.42	694
407.825	677.8
408.231	691.8
408.637	687.4
409.043	693.6
409.449	676.8
409.834	669.4
410.24	681.6
410.646	686.2
411.052	686.2
411.458	682.4
411.865	689.6
412.271	688.4
412.677	679.2
413.062	688.6
413.469	666.8
413.875	710.6
414.282	693
414.689	692
415.095	685.6
415.502	672.4
415.888	669.4
416.294	653.8
416.701	718.6
417.108	668
417.515	684.6
417.923	667.8
418.33	706.8
418.715	696.6
419.123	675
419.53	678.2
419.937	671.8
420.345	694.8
420.752	677.4
421.16	688.2
421.546	679.4
421.953	688.4
422.361	670
422.769	684.2
423.177	673.8
423.585	696.6
423.992	703.4
424.379	689
424.787	694.4
425.195	710.6
425.603	685.4
426.011	693
426.419	698.2
426.806	679.4
427.214	683.2
427.623	695.6
428.031	700.8
428.44	688.6
428.848	696.2
429.235	699.6
429.644	684.2
430.053	681.6
430.461	700.8
430.87	711.2
431.279	699.6
431.666	685.8
432.075	689
432.484	704.2
432.893	678.6
433.302	713.4
433.711	754.2
434.099	702
434.508	691
434.918	684
435.327	703.6
435.737	701.4
436.125	702.2
436.534	711
436.944	709.6
437.353	718.6
437.763	734.2
438.173	693.2
438.561	713.6
438.971	693.4
439.381	715.2
439.791	721.4
440.201	690.6
440.589	720.6
440.999	726
441.409	725.4
441.819	711.8
442.23	738.8
442.619	727.6
443.029	730.6
443.439	728.8
443.85	734.6
444.26	743
444.649	737.4
445.06	732.6
445.471	716.2
445.881	727
446.292	752.8
446.682	759.2
447.092	717
447.503	787.6
447.914	729.2
448.325	724.2
448.715	734.6
449.126	730.4
449.537	733.4
449.948	742.4
450.338	731.2
450.75	745.8
451.161	742.6
451.572	739.2
451.984	740.2
452.374	729.4
452.786	743.4
453.197	735.4
453.609	754.4
453.999	724
454.411	725.6
454.823	749
455.235	743
455.647	737.6
456.037	741.8
456.449	718.6
456.862	740.6
457.274	741.4
457.665	731
458.077	749.4
458.489	774.4
458.902	739
459.293	744.4
459.705	734.2
460.118	733.2
460.53	746
460.921	743.2
461.334	747.8
461.747	745.2
462.16	750.2
462.551	774
462.964	749.6
463.377	730
463.79	742.6
464.182	758.6
464.595	743.8
465.008	750.6
465.421	755.8
465.813	734.2
466.226	754.2
466.64	739
467.053	790
467.445	752.6
467.859	760.4
468.272	744.4
468.686	746.4
469.078	735.2
469.492	724.8
469.906	741
470.298	743
470.712	736.2
471.126	797.6
471.54	719.8
471.933	732.2
472.347	733.8
472.761	740.2
473.175	730.2
473.568	733.6
473.982	730.2
474.397	735.8
474.79	737.6
475.204	745.8
475.619	743.6
476.033	739.6
476.426	737.2
476.841	724.8
477.256	768.8
477.649	730.4
478.064	727.6
478.479	736.6
478.872	735.6
479.287	719.6
479.702	725.8
480.118	737.2
480.511	735
480.927	736.4
481.342	730.8
481.736	742.6
482.151	727.4
482.566	745.4
482.96	740.6
483.376	755
483.792	727.8
484.186	743.8
484.602	740.8
485.017	739.6
485.412	737.6
485.827	747.6
486.243	733.4
486.638	758
487.054	745.4
487.47	749.6
487.865	733.6
488.281	727.4
488.697	716.8
489.092	722.6
489.508	723.4
489.925	742.4
490.32	725.6
490.736	731.6
491.153	722.4
491.548	732.6
491.964	743
492.381	709.2
492.776	728.4
493.193	730.8
493.61	728.8
494.006	727
494.422	726
494.84	711.6
495.235	737.6
495.652	724.4
496.069	724.8
496.465	702.6
496.883	719.8
497.3	747.4
497.696	722
498.113	729.4
498.509	706.6
498.927	705.8
499.344	719
499.741	718
500.158	732
500.576	721.8
500.973	706.2
501.39	705.8
501.787	702.4
502.205	719.4
502.623	709.8
503.02	704.2
503.438	707.8
503.856	703.2
504.253	717
504.671	714.6
505.068	709.2
505.486	715.2
505.905	744.8
506.302	704.8
506.72	716.2
507.118	701.2
507.536	706.6
507.955	711.6
508.352	712.6
508.771	720
509.169	715.4
509.587	698
510.006	705
510.404	695.2
510.823	697
511.221	705
511.64	707
512.038	715.8
512.457	701.4
512.877	707.8
513.275	700
513.694	702
514.092	706.2
514.512	714
514.91	698.2
515.33	699.6
515.749	700.4
516.148	709.8
516.568	700.4
516.966	695.2
517.386	693.6
517.785	697.4
518.205	699.6
518.603	692.8
519.024	695.4
519.444	699.4
519.843	706.8
520.263	713.8
520.662	700.4
521.082	690.4
521.481	696.2
521.902	687.8
522.301	694.4
522.722	702.8
523.121	693.2
523.542	692.8
523.963	693.4
524.362	698.8
524.783	699.6
525.183	701.6
525.604	697.6
526.003	680
526.425	687
526.824	698.4
527.246	703
527.646	711.2
528.067	693.4
528.467	691.2
528.888	695.4
529.289	688.6
529.71	694.6
530.11	692.6
530.532	688
530.932	693.2
531.354	683.2
531.755	729.4
532.176	699.2
532.577	685.2
532.999	695.4
533.4	682.6
533.822	699.6
534.223	698.2
534.645	693.2
535.046	683.8
535.468	697
535.869	702
536.292	687.6
536.693	739.4
537.115	689.4
537.516	681.4
537.939	695.2
538.34	717.2
538.742	703
539.165	673.6
539.566	679.4
539.989	675.4
540.391	676.8
540.814	680.6
541.216	690.4
541.639	689.4
542.041	694.2
542.464	685.6
542.866	677.2
543.268	678
543.691	694.2
544.093	689.8
544.517	706.8
544.919	683.8
545.343	712.2
545.745	674.8
546.147	690
546.571	672
546.974	671
547.398	682.4
547.8	692.4
548.224	684.4
548.627	669.2
549.03	689
549.454	666.6
549.857	673
550.281	671.8
550.684	674.8
551.087	693
551.512	677
551.915	689.2
552.34	675.8
552.743	681
553.146	685.6
553.571	686.2
553.975	700.2
554.399	669.6
554.803	738.8
555.207	667.2
555.632	677.8
556.036	686.4
556.461	672.4
556.865	679.8
557.268	674.4
557.694	680
558.098	682.8
558.502	675.8
558.927	680.4
559.332	674.2
559.736	672.8
560.162	682.8
560.566	676.8
560.992	677.6
561.396	669.6
561.801	681.2
562.227	679.6
562.631	678
563.036	682.6
563.462	684.6
563.867	680.8
564.272	660.4
564.698	682.4
565.103	659.8
565.508	696.2
565.935	672.8
566.34	670.2
566.745	684.8
567.172	662.4
567.577	694.8
567.982	693.8
568.409	676.8
568.815	671.6
569.22	671.4
569.626	687
570.053	671.4
570.459	683.6
570.865	683.8
571.292	677
571.698	673.4
572.104	656
572.531	663.2
572.937	678.2
573.343	675.2
573.75	664
574.177	673.6
574.583	686.6
574.99	673.6
575.396	685.8
575.824	672
576.231	683.6
576.637	670.2
577.065	697.8
577.472	665.8
577.879	670.6
578.286	693.8
578.714	660.2
579.121	667.2
579.528	679.4
579.935	682.6
580.364	670.8
580.771	648.2
581.178	661.6
581.585	666
582.014	677
582.421	673
582.829	666.6
583.236	677
583.644	661
584.073	676.2
584.481	674.4
584.889	669
585.296	678.4
585.726	676.4
586.134	658.6
586.542	662.8
586.95	689.8
587.358	657.6
587.787	671.4
588.196	657.4
588.604	671.6
589.012	674.8
589.421	663
589.851	664.8
590.259	675
590.668	669.8
591.076	712.4
591.485	660.4
591.894	664.8
592.324	686.4
592.733	681.2
593.142	652
593.551	666.8
593.96	705
594.369	654.2
594.8	656.4
595.209	669.8
595.618	653.8
596.028	655.4
596.437	655
596.847	666.8
597.256	664.8
597.687	672.8
598.097	667.6
598.507	659.8
598.917	671.4
599.327	675.2
599.736	661.2
600.146	676.8
600.556	666
600.988	682.4
601.398	669
601.808	684.2
602.219	652.8
602.629	669.2
603.039	674.4
603.45	696
603.86	657.6
604.271	681
604.703	674.8
605.114	672.6
605.525	668
605.935	674.6
606.346	689.6
606.757	671.2
607.168	666
607.579	664.2
607.99	683.6
608.402	661
608.813	671.4
609.224	658.2
609.636	655.8
610.047	658.8
610.48	662.4
610.892	661.6
611.303	674.2
611.715	669
612.127	651
612.539	661
612.95	663.4
613.362	657.8
613.774	656.6
614.186	663.8
614.599	659.4
615.011	671.6
615.423	665.8
615.835	653.8
616.248	652.4
616.66	664.8
617.073	659
617.485	664
617.898	669.6
618.311	669.8
618.723	660.2
619.136	706.6
619.549	682
619.962	688.2
620.375	661.8
620.788	667.6
621.201	652.8
621.614	673.2
622.028	660.2
622.441	662.2
622.854	682.6
623.268	656.6
623.681	666.4
624.095	669.6
624.509	668
624.922	668.6
625.336	654.2
625.728	657
626.142	665.4
626.556	675
626.97	668.2
627.384	653.8
627.799	665.6
628.213	678.8
628.627	664.4
629.041	655
629.456	659.2
629.87	666
630.285	679.4
630.699	665.2
631.093	654
631.507	668
631.922	660.6
632.337	676
632.752	648.2
633.167	665.8
633.582	655
633.997	660.8
634.412	654.6
634.806	665.2
635.221	656.8
635.637	680.8
636.052	651.6
636.468	673.2
636.883	683.4
637.299	664.2
637.715	653.8
638.109	657.8
638.525	653.2
638.941	680
639.357	666.2
639.773	673.6
640.189	663.6
640.584	665
641	665.6
641.416	650.4
641.832	663.2
642.249	668.6
642.665	662.6
643.06	674
643.477	675.2
643.894	646
644.31	657.4
644.727	662.4
645.123	666
645.54	650.6
645.957	661.4
646.374	683.8
646.77	666
647.187	684.6
647.604	654.2
648.021	647.2
648.439	656.4
648.835	666.6
649.252	658.6
649.67	650.2
650.088	659
650.484	662.8
650.902	670.8
651.32	667.8
651.738	656.4
652.134	670
652.552	690.6
652.971	657
653.389	660.6
653.786	680.2
654.204	683.8
654.622	657.8
655.019	666.4
655.438	660.6
655.857	661.8
656.275	666.8
656.673	662.2
657.091	742
657.51	651
657.908	672
658.327	685.2
658.746	648.6
659.144	659
659.563	668.6
659.982	665.8
660.38	640.8
660.8	654.6
661.219	671.2
661.617	667.2
662.037	665.4
662.457	673.4
662.855	647.2
663.275	692.4
663.695	660.4
664.094	659.6
664.514	671.8
664.934	652.6
665.333	670.8
665.753	651.4
666.152	649
666.572	665.2
666.993	677.8
667.392	661.2
667.812	661.2
668.212	666.2
668.632	677.8
669.053	655.4
669.453	660
669.874	666.6
670.273	667.8
670.694	645.8
671.116	673
671.515	671.4
671.937	667.8
672.337	658.8
672.758	655.8
673.158	667
673.58	650.2
673.98	669.8
674.402	670.4
674.824	661.8
675.224	661.4
675.646	650.4
676.047	653.6
676.469	654.8
676.869	661.6
677.292	659.8
677.693	657.4
678.115	651.8
678.516	662.4
678.939	663.6
679.34	657.8
679.762	666.2
680.164	668.4
680.586	653.8
680.988	670.4
681.411	689.8
681.812	660
682.236	640.2
682.637	648
683.061	653.6
683.462	672.6
683.864	648.6
684.288	665
684.69	652
685.114	663.8
685.516	664
685.94	645
686.342	668
686.766	651.8
687.168	657.4
687.571	678
687.995	661
688.398	649.6
688.822	662.6
689.225	673
689.628	684.4
690.052	666.8
690.456	663.8
690.88	660.4
691.284	647.2
691.687	663.6
692.112	654.4
692.515	648.2
692.919	663
693.344	665.4
693.747	656.2
694.173	657
694.577	676.4
694.98	659.2
695.406	661.4
695.81	664.8
696.214	661.2
696.64	668.2
697.044	656.2
697.448	668.2
697.874	657.8
698.279	649.2
698.684	645.8
699.11	640.6
699.514	651.2
699.919	645.2
700.324	653.2
700.75	657.2
701.156	661.6
701.561	668.8
701.987	657.4
702.393	672
702.798	666.2
703.203	660.8
703.63	649.8
704.036	651.4
704.442	659
704.847	646.4
705.274	662.2
705.68	672.8
706.086	668.2
706.492	658.4
706.92	649.2
707.326	675.8
707.732	651.8
708.139	654.4
708.545	654.6
708.973	652.2
709.38	661
709.786	647
710.193	676.4
710.6	661.6
711.028	650.6
711.435	654.6
711.842	659
712.249	648.8
712.656	653.6
713.064	662.2
713.492	653.6
713.9	644.2
714.307	660.4
714.715	659.2
715.123	656
715.53	665.8
715.938	669.4
716.367	664
716.775	664.4
717.184	641.2
717.592	650.2
718	664.2
718.408	697
718.816	705.6
719.225	665.8
719.633	650.8
720.042	651.8
720.472	651.2
720.881	681.6
721.29	665.4
721.699	651.6
722.108	669.2
722.517	661.6
722.926	655
723.335	661.8
723.744	659.2
724.154	664.2
724.563	653.2
724.973	653.6
725.382	662.2
725.792	657.4
726.202	647
726.612	681.6
727.022	656.4
727.432	644.2
779.813	652
780.223	707.6
780.634	654.8
781.044	647
781.454	655.4
781.865	664.6
782.276	646.2
782.686	670
783.097	647.2
783.508	660.8
783.919	662.8
784.33	675
784.741	671.4
785.152	651.8
785.563	637.4
785.974	665.2
786.386	669.2
786.776	665.2
787.188	652.6
787.599	646
788.011	678.6
788.423	652
788.835	658.8
789.247	646.2
789.659	648.2
790.071	653.2
790.483	700.8
790.874	654.6
791.286	673.8
791.699	653.2
792.111	659.8
792.524	654
792.937	654.4
793.349	647.6
793.741	656
794.154	654.8
794.567	683.6
794.98	658.4
795.393	646.4
795.785	677.6
796.198	650
796.612	654.8
797.026	651.2
797.439	636.8
797.831	656.2
798.245	649
798.659	651.8
799.073	656.8
799.487	649
799.88	649.6
800.294	662.8
800.708	657
801.123	660.4
801.516	678.8
801.93	645.2
802.345	638.4
802.76	662.2
803.153	667.6
803.568	673.2
803.983	657
804.377	664.6
804.792	638.2
805.207	640
805.601	657.8
806.016	686.4
806.432	651.8
806.826	686
807.242	671.6
807.658	658.8
808.052	648.6
808.468	654.8
808.884	653.6
809.279	660.6
809.695	666
810.111	670.2
810.506	662.8
810.922	674.6
811.339	651.6
811.734	667.6
812.151	656.6
812.546	649.4
812.963	656
813.38	662.6
813.776	643.4
814.193	675
814.589	647.8
815.006	646
815.402	648
815.82	644.8
816.237	654.4
816.633	663.4
817.051	651.4
817.448	657.8
817.866	639.2
818.262	682.4
818.68	646.2
819.077	653.4
819.495	652.8
819.892	694
820.311	649.6
820.708	651.6
821.127	646.8
821.524	664.6
821.943	653.4
822.34	668.4
822.759	661.6
823.157	659.8
823.576	672.8
823.974	657.2
824.393	725.6
824.791	650
825.189	647.6
825.609	653
826.007	656.6
826.427	639.2
826.826	657.2
827.246	650.8
827.644	637.8
828.043	659.8
828.463	651
828.862	667.4
829.261	663.4
829.682	642.6
830.081	659.8
830.502	648.8
830.901	662.8
831.301	646.2
831.722	633.6
832.121	652
832.521	645.2
832.943	655.8
833.342	653.6
833.742	648.2
834.164	646.4
834.564	642.8
834.965	655.8
835.386	651.8
835.787	652
836.188	646.2
836.588	659
837.01	657
837.411	642.2
837.812	663.4
838.213	659.4
838.636	659
839.037	727
839.438	651
839.84	662.2
840.263	660.2
840.664	662.4
841.066	660
841.468	654.8
841.891	646.6
842.293	667
842.695	663.8
843.098	665.4
843.5	652
843.902	662.4
844.326	654.4
844.729	659.8
845.131	670.4
845.534	659
845.937	667.2
846.34	671.6
846.764	643.8
847.167	654.2
847.571	645
847.974	643.8
848.377	654.4
848.781	703
849.184	670.4
849.588	652.2
849.992	648.6
850.396	656.2
850.821	672.6
851.225	660.8
851.63	654
852.034	660.6
852.438	649.4
852.843	703.2
853.247	642
853.652	643.4
854.057	673.8
854.462	656.6
854.867	656.8
855.272	690.6
855.677	654.8
856.082	645.8
856.487	650
856.893	659.6
857.298	646.2
857.704	642.4
858.11	653
858.516	661.8
858.922	647.8
859.328	657
859.734	656.8
860.14	663.6
860.525	657.6
860.931	638.2
861.338	656.4
861.745	658.6
862.151	665.2
862.558	660
862.965	641.2
863.372	652.8
863.779	647.4
864.186	673.4
864.572	653.6
864.98	677.8
865.387	681.4
865.795	642
866.203	665.4
866.61	639.4
867.018	662.8
867.405	659.2
867.813	646.8
868.221	646.4
868.63	645.6
869.038	657.6
869.425	691
869.834	652.8
870.243	643.8
870.652	648.8
871.039	644.8
871.448	651.4
871.857	653
872.266	652.6
872.654	651.6
873.064	650.6
873.473	666.4
873.883	645.2
874.271	640.4
874.681	665.2
875.091	636.8
875.48	667.2
875.89	673.2
876.3	642.6
876.689	640
877.1	652
877.51	653.4
877.9	678.6
878.31	642
878.721	688.4
879.111	653.6
879.522	641
879.933	647
880.323	639
880.734	643.2
881.125	650
881.536	644.6
881.948	642.8
882.338	645.8
882.75	657.6
883.141	642.2
883.553	655.2
883.944	683.2
884.356	658.2
884.769	646.2
885.16	650.8
885.573	646.6
885.964	654.4
886.377	652.2
886.768	636
887.181	644.2
887.573	649
887.987	667.6
888.378	654.6
888.792	661.6
889.184	707.2
889.598	643.6
889.99	654
890.383	648.8
890.797	633.6
891.19	666.6
891.604	649.8
891.997	644.8
892.411	651.6
892.805	642
893.198	647.2
893.613	641.8
894.006	649.6
894.421	643.2
894.815	648.6
895.209	640.8
895.624	694
896.018	666
896.412	653.4
896.828	643.8
897.222	653.2
897.617	648.6
898.033	677.8
898.427	661.2
898.822	649.8
899.239	638.2
899.634	642.6
900.029	665.4
900.424	648.6
900.841	644.8
901.236	656.6
901.632	667.2
902.027	720.2
902.445	661
902.841	652.4
903.237	647.2
903.633	676
904.05	654.8
904.447	650.8
904.843	647.6
905.24	642.2
905.636	651
906.033	645.2
906.451	661
906.848	641.4
907.246	645
907.643	661
908.04	660.8
908.438	670.8
908.835	666.8
909.254	650.2
909.652	660.8
910.05	659.6
910.448	650.8
910.846	650.8
911.244	645.4
911.643	654.6
912.041	658.2
912.44	669
912.839	639.2
913.237	648.8
913.636	645
914.035	667.4
914.434	647.8
914.834	673.8
915.233	663.4
915.633	647.2
916.032	646.4
916.432	647.2
916.832	666
917.232	651.4
917.632	644.6
918.032	656.8
918.432	665.8
918.833	654
919.233	653.2
919.634	640.2
920.035	649
920.436	642.4
920.837	652.8
921.238	648.8
921.639	646
922.019	652.8
922.42	655.6
922.822	663
923.224	649.2
923.625	643.4
924.027	660.8
924.429	678.6
924.81	653.8
925.212	658.8
925.615	658.4
926.017	652.8
926.42	665.8
926.801	658.6
927.204	657
927.607	663
928.01	668.8
928.413	660.2
928.795	640.6
929.199	650
929.602	651
930.006	646.2
930.388	645
930.792	656.2
931.196	653.6
931.579	687.8
931.983	644
932.388	705.8
932.771	643.6
933.176	640.6
933.58	656.4
933.964	655.4
934.369	636.8
934.774	647.4
935.158	646.4
935.563	653.4
935.947	649.4
936.353	657
936.759	649
937.143	655.4
937.549	654.6
937.934	661.2
938.34	670
938.746	647
939.131	647.8
939.538	644.4
939.923	656.2
940.33	641.4
940.716	651.6
941.123	650.8
941.508	655.6
941.916	666
942.302	653.2
942.709	647.4
943.096	645.6
943.503	655.6
943.89	648.2
944.298	646.2
944.685	682.2
945.072	650
945.48	657.2
945.867	639.6
946.276	639
946.663	671.6
947.051	664.4
947.46	665
947.848	656.8
948.257	643.2
948.645	651.8
949.033	656
949.443	640.8
949.831	693.4
950.22	636.2
950.63	659
951.018	677
951.407	653.4
951.796	635
952.207	651.6
952.596	650.8
952.985	635.6
953.375	694
953.786	640.8
954.176	641.4
954.566	654.6
954.956	640.6
955.367	644.6
955.758	663.4
956.148	641
956.539	665
956.929	643.8
957.341	646.4
957.732	641.6
958.123	655.2
958.515	639.4
958.906	665
959.297	644.4
959.689	649.8
960.102	644.6
960.494	645.6
960.886	647.6
961.278	644
961.67	679.8
962.062	701
962.455	647
962.847	640.8
963.24	639
963.633	643
964.026	641.2
964.419	645.4
964.812	657
965.206	651.6
965.599	646.2
965.993	647.8
966.386	652.2
966.78	657.2
967.174	661.4
967.569	639.4
967.963	636.8
968.357	633.4
968.752	636.6
969.146	646.4
969.541	636.2
969.936	642.6
970.331	652.6
970.705	651
971.1	647.8
971.496	653.4
971.892	641.2
972.287	650.4
972.683	638.4
973.079	650.4
973.454	666.8
973.85	654.8
974.247	649.8
974.643	669.8
975.04	648.6
975.415	651.6
975.812	637.6
976.209	651.8
976.607	635
976.982	662.8
977.38	666.4
977.778	649.4
978.175	650.4
978.552	653.4
978.95	644.4
979.348	656
979.725	698
980.123	646.4
980.522	644.8
980.899	643.8
981.298	640.4
981.697	644.4
982.075	644.2
982.474	643.8
982.852	649.4
983.251	650.6
983.651	641.4
984.029	653.4
984.429	644.8
984.808	620.8
985.208	645.4
985.609	642.2
985.987	638.6
986.388	632.4
986.768	652.2
987.168	641.6
987.548	662
987.949	653.6
988.329	653.8
988.731	640.4
989.111	638
989.491	643.6
989.893	645
990.273	658.8
990.676	630.6
991.057	641.4
991.459	649.2
991.84	647.4
992.221	641.2
992.624	671.8
993.006	648.4
993.388	652
993.791	652.2
994.173	659.6
994.576	678.8
994.959	643
995.341	642.8
995.724	642.8
996.128	650.4
996.511	649.8
996.894	643.2
997.298	644.4
997.681	649.6
998.065	649.6
998.448	649.6
998.854	662.4
999.237	643.2
999.621	649.8
1000.01	666.6
1000.39	653.4
1000.8	646.4
1001.18	656.4
1001.56	657.6
1001.95	651.8
1002.33	655.8
1002.72	642.8
1003.13	653.6
1003.51	633.6
1003.9	648.2
1004.28	661.4
1004.67	640.6
1005.06	651
1005.44	683.4
1005.83	642
1006.21	658.6
1006.6	646.8
1006.99	661.2
1007.37	650.8
1007.76	653.2
1060.12	640.4
1060.51	638.4
1060.89	659.2
1061.28	654
1061.67	662
1062.06	656.2
1062.45	650
1062.83	639.6
1063.22	662.6
1063.61	700.6
1064	655.6
1064.39	650.2
1064.78	647
1065.14	651.8
1065.53	658
1065.92	643.8
1066.31	641.8
1066.7	655.4
1067.09	654.8
1067.46	659.6
1067.85	642.8
1068.24	647.6
1068.63	655.8
1069.02	638.4
1069.39	658.4
1069.78	640.6
1070.17	644
1070.57	643
1070.93	653.2
1071.33	644
1071.72	658
1072.11	652.4
1072.48	642.8
1072.87	649.4
1073.26	656.2
1073.64	647.2
1074.03	640
1074.4	640.8
1074.79	646.2
1075.19	645
1075.56	645.6
1075.95	654.6
1076.34	648.8
1076.72	643.4
1077.11	658.6
1077.48	663
1077.88	652
1078.25	643.4
1078.64	662.8
1079.02	660.2
1079.41	659.2
1079.78	643.6
1080.18	645
1080.55	723
1080.95	639
1081.32	636
1081.72	658
1082.09	641.6
1082.49	637.6
1082.86	642.2
1083.24	635.2
1083.63	642.6
1084.01	647.6
1084.38	656.6
1084.78	640
1085.16	650.8
1085.55	662.6
1085.93	668.4
1086.31	643.8
1086.7	679.2
1087.08	645.8
1087.46	638.8
1087.83	643
1088.23	656.4
1088.61	641.6
1088.99	649
1089.36	643
1089.76	651
1090.14	654.8
1090.52	637.4
1090.9	638.6
1091.27	653.2
1091.67	675.6
1092.05	652
1092.43	648.4
1092.81	656
1093.19	653.6
1093.57	649.4
1093.95	644.4
1094.35	654.2
1094.73	660.8
1095.11	647.6
1095.49	635.2
1095.87	642.8
1096.25	653.8
1096.63	663.8
1097.01	639.4
1097.39	657.6
1097.77	646.6
1098.15	650
1098.53	642.6
1098.91	639.4
1099.29	646.6
1099.68	667.8
1100.06	659.2
1100.44	650.4
1100.82	648.2
1101.18	641.4
1101.56	648.6
1101.95	641
1102.33	643
1102.71	643.8
1103.1	642.8
1103.48	627.2
1103.86	632
1104.22	657.6
1104.61	640.2
1104.99	650.2
1105.38	630.8
1105.76	656
1106.12	644.2
1106.51	680.4
1106.89	650.4
1107.26	645
1107.64	654.6
1108.03	647.6
1108.41	644.4
1108.78	638.4
1109.16	641.2
1109.55	661.2
1109.91	635
1110.3	633.4
1110.69	656
1111.05	640.6
1111.44	650
1111.8	650.6
1112.19	649.8
1112.58	651.2
1112.94	641.6
1113.33	649.6
1113.7	630
1114.09	643.6
1114.45	638.8
1114.84	640
1115.21	651.2
1115.6	640.2
1115.96	651.2
1116.35	650.8
1116.72	643.2
1117.11	658.6
1117.48	638.2
1117.85	646.2
1118.24	665.4
1118.6	641.4
1118.99	635.2
1119.36	654
1119.73	635.8
1120.12	649.2
1120.49	635.2
1120.86	659.6
1121.25	643.4
1121.62	644.2
1121.99	642.6
1122.38	661.8
1122.76	647.6
1123.13	643.4
1123.5	652.2
1123.89	661.6
1124.26	638.4
1124.63	645
1125	652.4
1125.4	648.6
1125.77	646
1126.14	634.2
1126.51	632
1126.88	649.2
1127.26	636.2
1127.63	624.6
1128.02	644
1128.4	640.6
1128.77	639.2
1129.14	643.2
1129.52	636.4
1129.89	647.6
1130.26	634.8
1130.64	635
1131.01	634.2
