#lambda/nm	C1
208.295	562
208.67	497
209.045	466
209.419	456
209.794	683
210.169	657.4
210.544	796.6
210.919	690.6
211.295	672.4
211.67	683.6
212.045	678.6
212.421	674.6
212.796	732.6
213.172	682.8
213.547	676
213.923	674.6
214.299	671
214.675	685.8
215.051	687.8
215.427	689.4
215.803	705.6
216.179	694
216.555	675.4
216.932	696.6
217.308	686.4
217.684	675.8
218.061	691.2
218.438	687.8
218.814	671.6
219.191	687.6
219.568	673.8
219.945	676.2
220.322	683.6
220.699	680.4
221.076	697.4
221.453	691.4
221.83	674.8
222.208	680.2
222.585	686.2
222.962	682.8
223.34	676.8
223.717	679
224.095	684
224.473	681
224.851	670.2
225.229	665
225.607	688.2
225.985	670.4
226.363	685.8
226.741	682.8
227.119	680
227.497	691.4
227.876	661.6
228.254	685.8
228.633	678.6
229.011	678.8
229.39	685.4
229.769	679.8
230.148	693.4
230.527	707.6
230.905	682.8
231.284	680.8
231.664	673
232.043	696.4
232.422	687.4
232.801	684.6
233.181	690.2
233.56	680
233.94	678.2
234.319	661.4
234.699	679.8
235.079	733.2
235.458	728.2
235.838	707
236.218	665.2
236.598	672.4
236.978	679.4
237.358	675.6
237.738	677.2
238.119	693.4
238.499	671.2
238.88	686.2
239.26	697.4
239.641	675.8
240.021	666.6
240.402	685.2
240.783	666.8
241.163	683
241.544	685
241.925	682
242.306	697.2
242.687	684.8
243.069	689
243.45	696.4
243.831	686.2
244.212	679.2
244.594	711.8
244.975	699.8
245.357	678.4
245.739	679.2
246.12	687
246.502	695
246.884	682.6
247.266	686.2
247.648	684.8
248.03	711.8
248.412	684
248.794	689
249.176	678.2
249.559	691
249.941	681.4
250.323	670.8
250.706	674.6
251.089	688.4
251.471	691.4
251.854	677.8
252.237	684.8
252.62	699.2
253.002	681
253.385	681.6
253.769	687.4
254.152	685.6
254.535	683.2
254.918	677.2
255.301	670.8
255.685	672.6
256.068	667.8
256.452	712
256.835	695.2
257.219	682.6
257.603	696.4
257.986	665.8
258.37	690.2
258.754	670.6
259.138	692.8
259.522	700.2
259.906	683.8
260.29	689.2
260.675	685.8
261.059	687.4
261.443	663.6
261.828	700.4
262.212	690.2
262.597	670.2
262.981	682.2
263.366	693.4
263.751	692.6
264.136	673.8
264.521	680.6
264.906	672.8
265.291	696.2
265.676	676.4
266.061	688.4
266.446	701.6
266.831	678.8
267.217	714
267.602	682.2
267.987	680.2
268.373	687.2
268.759	695.8
269.144	690.4
269.53	680.6
269.916	684
270.302	681
270.688	700.6
271.074	689
271.46	690.4
271.846	728.2
272.232	685
272.618	676.4
273.004	675
273.391	692.8
273.777	698
274.164	698
274.55	703.2
274.937	697
275.324	678.6
275.71	693.4
276.097	686.8
276.484	680.4
276.871	685.2
277.258	692.4
277.645	671.4
278.032	681.8
278.419	683
278.807	690.6
279.194	675.6
279.581	680
279.969	685.6
280.356	688.2
280.744	688.2
281.131	717.4
281.519	688.4
281.907	686
282.295	686
282.682	703.8
283.07	685.8
283.458	702.8
283.846	697.2
284.235	701.2
284.623	699
285.011	682
285.399	686
285.788	679.6
286.176	673
286.565	698.4
286.953	672.2
287.342	685.4
287.731	680.4
288.119	673.4
288.508	685.4
288.897	681.2
289.286	671.4
289.675	692.6
290.064	694.4
290.453	681.8
290.821	687.8
291.21	708.2
291.599	678.8
291.989	693.2
292.378	700.6
292.768	707.2
293.157	687.8
293.547	706.6
293.936	680
294.326	678
294.716	682.8
295.106	685.8
295.496	692.6
295.886	693.4
296.276	678.8
296.666	671.4
297.056	677.4
297.446	670.2
297.836	704
298.227	683.2
298.617	684.6
299.008	697.2
299.398	679.2
299.789	678.4
300.179	692.4
300.57	698
300.961	676.6
301.352	681.2
301.742	703.8
302.133	684.8
302.524	683
302.915	688.2
303.307	671.4
303.698	693.4
304.089	694
304.48	681.8
304.872	696.2
305.263	684.8
305.655	676.6
306.046	699
306.438	686.4
306.829	678.4
307.221	709.2
307.613	689.8
308.005	697.4
308.397	704
308.789	713.2
309.181	711.2
309.573	713.6
309.965	704.6
310.357	682.2
310.749	698.6
311.142	676.2
311.534	691.6
311.926	696.8
312.319	686.2
312.711	677.4
313.104	695.2
313.497	687.2
313.889	725.2
314.282	701.6
314.675	712.2
315.068	688
315.461	698.4
315.854	719
316.247	687.4
316.64	684.2
317.033	678.6
317.405	697.4
317.798	685.4
318.192	689.4
318.585	669.8
318.979	681.6
319.372	680.2
319.766	675.4
320.16	697.2
320.553	697.8
320.947	709.2
321.341	678
321.735	694
322.129	671.8
322.523	719.4
322.917	680.4
323.311	698.6
323.705	687.2
324.099	699
324.494	703.4
324.888	692
325.282	684
325.677	698
326.071	701.8
326.466	713.8
326.861	692.2
327.255	709.6
327.65	706.4
328.045	700.2
328.44	683.2
328.835	689.8
329.23	675.4
329.625	709.8
330.02	671.6
330.415	706.6
330.81	685
331.206	685.4
331.601	677
331.996	693.4
332.37	708.4
332.766	671.2
333.161	713.4
333.557	677.2
333.953	683
334.348	1053.8
334.744	687
335.14	677.2
335.536	673.4
335.932	702.2
336.328	684.4
336.724	696.2
337.12	684.8
337.516	684.8
337.913	691.2
338.309	700.2
338.705	685.6
339.102	696
339.498	684
339.895	701.4
340.291	680.8
340.688	690.8
341.085	683.4
341.481	683.8
341.878	685.2
342.275	705.8
342.672	671.6
343.069	687.4
343.466	674.4
343.842	693.2
344.239	679.2
344.636	680.6
345.033	678.4
345.431	687.8
345.828	684.2
346.225	677.6
346.623	725.6
347.02	677.8
347.418	696.8
347.816	713.4
348.213	679
348.611	694.6
349.009	678.6
349.407	695.8
349.805	677.6
350.203	671
350.601	700
350.999	672.4
351.397	749.2
351.795	688.2
352.193	703.8
352.57	697
352.969	699.4
353.367	672.2
353.766	671.8
354.164	684.6
354.563	704
354.961	686.6
355.36	675
355.759	681
356.158	675.4
356.557	675.2
356.956	672.8
357.355	668.2
357.754	691
358.153	692
358.552	711.4
358.951	670
359.35	690.6
359.75	680.8
360.149	669.2
360.527	667.8
360.926	668.6
361.326	678.2
361.726	675.4
362.125	673
362.525	691
362.925	676
363.325	679.2
363.724	670
364.124	677.4
364.524	669.6
364.924	679.4
365.324	691.6
365.725	662.2
366.125	685
366.525	676.4
366.904	673.4
367.304	666.6
367.705	699.2
368.105	691.6
368.506	688
368.906	675.4
369.307	676.8
369.708	685.6
370.108	669.8
370.509	693.2
370.91	668.6
371.311	675.8
371.712	687
372.113	675
372.514	671
372.894	682.2
373.295	674.2
373.696	685.8
374.097	698.6
374.499	714.4
374.9	682.8
375.301	665.6
375.703	693.6
376.105	674
376.506	685.4
376.908	694.2
377.309	681.4
377.711	680.4
378.113	677.6
378.493	670.2
378.895	672
379.297	690.4
379.699	667.4
380.102	691.2
380.504	681.2
380.906	674.8
381.308	701.4
381.71	674.6
382.113	690.4
382.515	682.4
382.918	677.4
383.299	681
383.701	686.4
384.104	676.8
384.507	665.2
384.909	675.6
385.312	665.6
385.715	662.2
386.118	682.4
386.521	670.2
386.924	688
387.327	671.8
387.709	667
388.112	663
388.515	668.2
388.918	676.2
389.322	701
389.725	675.4
390.129	694.4
390.532	683.8
390.936	676.4
391.339	672.8
391.743	678.8
392.125	675
392.529	692.4
392.933	695.2
393.337	676.2
393.74	677.6
394.144	672
394.548	674.4
394.953	678.8
395.357	681.8
395.761	671.8
396.144	678
396.548	675.4
396.952	679.8
397.357	685
397.761	669.4
398.166	672.8
398.57	674.2
398.975	673.6
399.379	677.4
399.763	731.8
400.168	676.8
400.572	671.4
400.977	668.4
401.382	695.4
401.787	683.2
402.192	694.4
402.597	695
403.002	655.4
403.386	687.4
403.791	694.2
404.197	675.2
404.602	676.8
405.007	689.8
405.413	679.8
405.818	685
406.224	668.8
406.608	674.4
407.014	665.6
407.42	689
407.825	673.8
408.231	687
408.637	675.8
409.043	700.2
409.449	680
409.834	674.6
410.24	683.2
410.646	693.6
411.052	688.2
411.458	678
411.865	692.4
412.271	697
412.677	690.8
413.062	689.4
413.469	672
413.875	707.8
414.282	689.8
414.689	686.8
415.095	688.2
415.502	663.2
415.888	678.4
416.294	664.4
416.701	726
417.108	670.4
417.515	686.4
417.923	679.4
418.33	698.6
418.715	687.8
419.123	677.2
419.53	675
419.937	680.8
420.345	693
420.752	676.8
421.16	695
421.546	664.6
421.953	679.6
422.361	673.8
422.769	676.2
423.177	671
423.585	701.8
423.992	700.4
424.379	698
424.787	702.2
425.195	694.2
425.603	684
426.011	695.6
426.419	693
426.806	680.8
427.214	690.2
427.623	696.8
428.031	705.2
428.44	686
428.848	692.8
429.235	697.4
429.644	681
430.053	689.6
430.461	701.2
430.87	720.4
431.279	688.8
431.666	675.8
432.075	688.4
432.484	682
432.893	681.2
433.302	699
433.711	727.2
434.099	679.6
434.508	682.6
434.918	673
435.327	674.8
435.737	680.2
436.125	684.4
436.534	682.4
436.944	677.4
437.353	699.2
437.763	700.6
438.173	670
438.561	691.6
438.971	657
439.381	669.8
439.791	681.8
440.201	651.6
440.589	673.4
440.999	689.4
441.409	679.2
441.819	674.4
442.23	679.6
442.619	683.2
443.029	680.2
443.439	680.8
443.85	695.6
444.26	708.2
444.649	695.4
445.06	681
445.471	668
445.881	678.4
446.292	692.4
446.682	707
447.092	660.4
447.503	742.2
447.914	686.4
448.325	684.2
448.715	684.8
449.126	679.8
449.537	677
449.948	676.6
450.338	670.6
450.75	686.2
451.161	680.2
451.572	689.6
451.984	676.4
452.374	658.4
452.786	675.6
453.197	681.6
453.609	682.6
453.999	665.2
454.411	664
454.823	697.2
455.235	677.6
455.647	679.8
456.037	684.4
456.449	662.2
456.862	668.2
457.274	679.2
457.665	662
458.077	682.4
458.489	704.6
458.902	676.6
459.293	679.8
459.705	690.8
460.118	672
460.53	688.6
460.921	676.6
461.334	670.8
461.747	673.8
462.16	684.4
462.551	683.2
462.964	680.6
463.377	652.8
463.79	671.4
464.182	676.2
464.595	665.2
465.008	674
465.421	683.8
465.813	672.4
466.226	682
466.64	664
467.053	721.4
467.445	687.8
467.859	689.6
468.272	677.2
468.686	692.4
469.078	682.8
469.492	670.8
469.906	671.4
470.298	685.6
470.712	667
471.126	724.4
471.54	664.4
471.933	664.6
472.347	673
472.761	668.2
473.175	657
473.568	669.6
473.982	660.4
474.397	673.8
474.79	667.6
475.204	678.6
475.619	673.2
476.033	676
476.426	679.8
476.841	662.2
477.256	696.4
477.649	663.8
478.064	662.8
478.479	668.4
478.872	670.2
479.287	652.2
479.702	672.4
480.118	666.4
480.511	665.2
480.927	668
481.342	662.4
481.736	680
482.151	668.2
482.566	686.4
482.96	673.8
483.376	682.6
483.792	666.2
484.186	690.4
484.602	669.8
485.017	675.8
485.412	665
485.827	673.8
486.243	672.6
486.638	697.2
487.054	682.2
487.47	690.8
487.865	666.4
488.281	666
488.697	669.4
489.092	665.4
489.508	657
489.925	686
490.32	659.4
490.736	680.8
491.153	673.6
491.548	669
491.964	672.2
492.381	655.4
492.776	675
493.193	663.6
493.61	669.6
494.006	677.6
494.422	687.4
494.84	660.4
495.235	686.8
495.652	672.2
496.069	665
496.465	664
496.883	671
497.3	695.4
497.696	668.4
498.113	668.8
498.509	663
498.927	660.4
499.344	657.4
499.741	662.4
500.158	679.8
500.576	682.6
500.973	672.2
501.39	668.8
501.787	664.4
502.205	674
502.623	666
503.02	648.2
503.438	655
503.856	672.6
504.253	680.4
504.671	670
505.068	663.8
505.486	660.4
505.905	692.8
506.302	673
506.72	680
507.118	661.6
507.536	670.4
507.955	669.4
508.352	668
508.771	673.2
509.169	676.2
509.587	662.6
510.006	666.2
510.404	655
510.823	666.4
511.221	669.6
511.64	667.8
512.038	681.8
512.457	666.6
512.877	669.8
513.275	666
513.694	663.8
514.092	667.4
514.512	675.2
514.91	663.2
515.33	666
515.749	667.2
516.148	669.2
516.568	669.2
516.966	666.4
517.386	667.2
517.785	674.6
518.205	669
518.603	666.2
519.024	655
519.444	671.4
519.843	682.2
520.263	686.2
520.662	672.2
521.082	663.2
521.481	666.8
521.902	664.4
522.301	665.2
522.722	674.8
523.121	661.6
523.542	663.6
523.963	658.6
524.362	664.2
524.783	670.4
525.183	658.8
525.604	663.8
526.003	657.4
526.425	652.2
526.824	666.4
527.246	673.8
527.646	673
528.067	667.2
528.467	667.8
528.888	668.6
529.289	665.4
529.71	671.8
530.11	664.8
530.532	660.2
530.932	661.2
531.354	657.8
531.755	699
532.176	678.6
532.577	668.2
532.999	670.2
533.4	662.2
533.822	679
534.223	667.6
534.645	666.2
535.046	667.8
535.468	671.2
535.869	690.4
536.292	655.4
536.693	707.6
537.115	678.4
537.516	652.2
537.939	662.8
538.34	684.6
538.742	680.4
539.165	671.6
539.566	664.8
539.989	660.2
540.391	658.6
540.814	667.4
541.216	666.2
541.639	657.8
542.041	668.4
542.464	656.4
542.866	659.2
543.268	649.8
543.691	673.2
544.093	676.4
544.517	686.4
544.919	658
545.343	689.2
545.745	650.8
546.147	669.6
546.571	665.8
546.974	655.4
547.398	664.4
547.8	683.4
548.224	667.8
548.627	660
549.03	670.4
549.454	658.8
549.857	655.4
550.281	656.2
550.684	659.4
551.087	676.6
551.512	677.2
551.915	675
552.34	671.8
552.743	664
553.146	668.8
553.571	660.4
553.975	698.4
554.399	668.6
554.803	718
555.207	666.2
555.632	663.2
556.036	674
556.461	665
556.865	663.8
557.268	664
557.694	662.2
558.098	673.4
558.502	665
558.927	664
559.332	664.6
559.736	671.6
560.162	681.2
560.566	659.8
560.992	673.6
561.396	666.2
561.801	664.8
562.227	662
562.631	663
563.036	666.4
563.462	673.8
563.867	667.8
564.272	658.6
564.698	672.8
565.103	646.4
565.508	686.2
565.935	656
566.34	658.2
566.745	681
567.172	663.6
567.577	689.4
567.982	679.4
568.409	666.4
568.815	650.8
569.22	659
569.626	666.4
570.053	650.6
570.459	671
570.865	667.4
571.292	673.4
571.698	675.2
572.104	646
572.531	661.4
572.937	677.4
573.343	662.2
573.75	664.2
574.177	668
574.583	670.2
574.99	668.6
575.396	663.4
575.824	656.6
576.231	666
576.637	662
577.065	692.8
577.472	659.4
577.879	660.4
578.286	678.8
578.714	665.8
579.121	664.2
579.528	670.6
579.935	671.2
580.364	660.4
580.771	650
581.178	655.6
581.585	672.4
582.014	667.6
582.421	659
582.829	659
583.236	681
583.644	660.4
584.073	662.4
584.481	668.8
584.889	663.6
585.296	677.2
585.726	666
586.134	655.6
586.542	661.2
586.95	675.8
587.358	655.8
587.787	662.8
588.196	652.6
588.604	660.4
589.012	660.2
589.421	659
589.851	656.2
590.259	674
590.668	662.2
591.076	701
591.485	658
591.894	663.6
592.324	683.4
592.733	675.2
593.142	650
593.551	665.8
593.96	700.2
594.369	652.8
594.8	656.6
595.209	666
595.618	648.4
596.028	659.2
596.437	652.2
596.847	662.4
597.256	669.8
597.687	670
598.097	663.4
598.507	654.6
598.917	667.8
599.327	673.4
599.736	665.2
600.146	674
600.556	660.2
600.988	679.2
601.398	666.4
601.808	671.4
602.219	649.6
602.629	668.2
603.039	674.8
603.45	687.8
603.86	661.6
604.271	678.4
604.703	670.6
605.114	666.6
605.525	666.4
605.935	669.8
606.346	674.8
606.757	673
607.168	654
607.579	650.6
607.99	679.4
608.402	661.8
608.813	668.4
609.224	659.2
609.636	655.6
610.047	654.8
610.48	671.8
610.892	668.4
611.303	672.6
611.715	659.2
612.127	648.8
612.539	654.8
612.95	668.4
613.362	646
613.774	644.4
614.186	659.2
614.599	661
615.011	670.8
615.423	659.4
615.835	653.6
616.248	649.6
616.66	664.6
617.073	651.2
617.485	660.8
617.898	679.2
618.311	668.8
618.723	667
619.136	693.8
619.549	674
619.962	685.2
620.375	664.2
620.788	669
621.201	658
621.614	673.4
622.028	665.6
622.441	666.8
622.854	684.8
623.268	649.2
623.681	667.8
624.095	660.2
624.509	670
624.922	664.6
625.336	653
625.728	666.8
626.142	667.6
626.556	675.6
626.97	666
627.384	658.8
627.799	652
628.213	668.6
628.627	658.8
629.041	650.4
629.456	647.4
629.87	650.2
630.285	667.4
630.699	671.8
631.093	657.8
631.507	655.4
631.922	665.8
632.337	681.2
632.752	644.8
633.167	653.2
633.582	655
633.997	660.8
634.412	657.4
634.806	661.8
635.221	654.4
635.637	666.6
636.052	649.2
636.468	667.2
636.883	678.2
637.299	661
637.715	646.8
638.109	661.4
638.525	646.6
638.941	673
639.357	662.6
639.773	682
640.189	654
640.584	656.6
641	653.8
641.416	647
641.832	662
642.249	657.6
642.665	656.8
643.06	663
643.477	673.8
643.894	647.4
644.31	651.8
644.727	651.6
645.123	647.2
645.54	653.6
645.957	654.4
646.374	666.2
646.77	663
647.187	689.8
647.604	655.6
648.021	652.8
648.439	655
648.835	664.2
649.252	659
649.67	657
650.088	663.2
650.484	664.4
650.902	670.4
651.32	673.6
651.738	653.2
652.134	659.2
652.552	684
652.971	665
653.389	662.8
653.786	681.4
654.204	690.2
654.622	650.4
655.019	648.6
655.438	670.6
655.857	665.2
656.275	664.2
656.673	656.4
657.091	741
657.51	654.4
657.908	674.8
658.327	684.2
658.746	652
659.144	659.2
659.563	683.8
659.982	662.2
660.38	653
660.8	666.4
661.219	667.8
661.617	661.4
662.037	653.6
662.457	686.4
662.855	644.4
663.275	694
663.695	657.4
664.094	658.6
664.514	661.8
664.934	652.4
665.333	671.8
665.753	656.8
666.152	653.8
666.572	653.2
666.993	678.4
667.392	658.6
667.812	663.2
668.212	656.6
668.632	680.6
669.053	658.6
669.453	664.2
669.874	657.8
670.273	662.6
670.694	652.2
671.116	664
671.515	668.6
671.937	664.4
672.337	664.6
672.758	657.4
673.158	671.2
673.58	656
673.98	655.4
674.402	674
674.824	651.6
675.224	651.4
675.646	650.6
676.047	650.8
676.469	656
676.869	662.8
677.292	665
677.693	649
678.115	654
678.516	663.2
678.939	659.2
679.34	653.6
679.762	673.8
680.164	667.8
680.586	646.4
680.988	660.8
681.411	687.2
681.812	664
682.236	649.8
682.637	648.6
683.061	646.4
683.462	660.8
683.864	652.6
684.288	659.4
684.69	649.8
685.114	672.2
685.516	671.2
685.94	652.4
686.342	662
686.766	648.4
687.168	654.4
687.571	683
687.995	667.6
688.398	646
688.822	657.4
689.225	675.8
689.628	680.8
690.052	656.6
690.456	670.4
690.88	662.4
691.284	647.2
691.687	665.2
692.112	638.8
692.515	645.8
692.919	657.8
693.344	663.8
693.747	664
694.173	658.2
694.577	667.2
694.98	655.8
695.406	656.8
695.81	667.8
696.214	666.2
696.64	655
697.044	661.4
697.448	670.4
697.874	656.2
698.279	654.4
698.684	654.4
699.11	652.6
699.514	658.6
699.919	662
700.324	650.6
700.75	661
701.156	656.2
701.561	668.8
701.987	674.6
702.393	663.6
702.798	678.4
703.203	664
703.63	656.4
704.036	657.4
704.442	664.6
704.847	649.6
705.274	656
705.68	664.4
706.086	672.2
706.492	644.6
706.92	661
707.326	672
707.732	654.6
708.139	655
708.545	662.8
708.973	652.4
709.38	656.8
709.786	641.4
710.193	673
710.6	652.6
711.028	635
711.435	655
711.842	646.4
712.249	641.2
712.656	655
713.064	669
713.492	643.6
713.9	663.2
714.307	660.8
714.715	647.6
715.123	664.4
715.53	664.6
715.938	670.4
716.367	666
716.775	656.8
717.184	644.8
717.592	656.6
718	672.6
718.408	698.6
718.816	704
719.225	655.2
719.633	655.8
720.042	648
720.472	656.6
720.881	670.8
721.29	656.2
721.699	650.2
722.108	661
722.517	663.2
722.926	661.4
723.335	675.4
723.744	663
724.154	657.8
724.563	663.2
724.973	663.6
725.382	660.2
725.792	659.2
726.202	644.6
726.612	684.6
727.022	656
727.432	652
779.813	649.2
780.223	707
780.634	661.4
781.044	656.4
781.454	652.6
781.865	672.2
782.276	651
782.686	671.6
783.097	642.8
783.508	647.2
783.919	648.6
784.33	668
784.741	657
785.152	650.4
785.563	641.4
785.974	655.8
786.386	667.6
786.776	656.2
787.188	654.2
787.599	656.4
788.011	674.6
788.423	660.2
788.835	651
789.247	643.4
789.659	648
790.071	651.2
790.483	700.8
790.874	656.8
791.286	670.6
791.699	650
792.111	662.8
792.524	657.2
792.937	658
793.349	648.4
793.741	649.4
794.154	645.6
794.567	679.4
794.98	656.2
795.393	636
795.785	679.8
796.198	650.8
796.612	659
797.026	652.2
797.439	640.4
797.831	651
798.245	646.8
798.659	651.2
799.073	656
799.487	644.8
799.88	647
800.294	647
800.708	651.8
801.123	656.4
801.516	672.6
801.93	649
802.345	642.8
802.76	650.8
803.153	664
803.568	670
803.983	670
804.377	673.2
804.792	641.8
805.207	642
805.601	665.6
806.016	695.2
806.432	655.6
806.826	689.8
807.242	670.2
807.658	656.6
808.052	647.2
808.468	657.4
808.884	654.2
809.279	653.6
809.695	673
810.111	679.4
810.506	657.2
810.922	677.8
811.339	654.4
811.734	663.2
812.151	651
812.546	643.2
812.963	655.4
813.38	655.6
813.776	657.4
814.193	685.2
814.589	650.8
815.006	656.8
815.402	647.6
815.82	655.2
816.237	650.6
816.633	660.2
817.051	648.4
817.448	660.4
817.866	646.6
818.262	671.6
818.68	649
819.077	651.2
819.495	657.6
819.892	702
820.311	649.6
820.708	659.6
821.127	657
821.524	670.8
821.943	658.8
822.34	678.2
822.759	659
823.157	658.6
823.576	679.8
823.974	655.8
824.393	734.4
824.791	655.6
825.189	643.2
825.609	650.6
826.007	643.4
826.427	642.8
826.826	648.6
827.246	656.8
827.644	640.4
828.043	662.6
828.463	649.2
828.862	664.8
829.261	664
829.682	645.8
830.081	658.8
830.502	653
830.901	662.8
831.301	645.6
831.722	640
832.121	649.6
832.521	643.2
832.943	654.4
833.342	656.6
833.742	645.2
834.164	660.2
834.564	646
834.965	659
835.386	652.4
835.787	647.6
836.188	656
836.588	663.6
837.01	655.2
837.411	647
837.812	651.4
838.213	665.6
838.636	644
839.037	731.2
839.438	654.4
839.84	657.6
840.263	654.6
840.664	656.6
841.066	656.6
841.468	656.6
841.891	654.4
842.293	668.8
842.695	656.6
843.098	667.4
843.5	651.8
843.902	666.8
844.326	658.2
844.729	660.4
845.131	666.2
845.534	660.6
845.937	673
846.34	674.4
846.764	649.2
847.167	661.6
847.571	643.6
847.974	649.2
848.377	655.6
848.781	706.6
849.184	663
849.588	638.6
849.992	658
850.396	653
850.821	680.6
851.225	663.4
851.63	658.4
852.034	671.4
852.438	656.4
852.843	698.2
853.247	648.6
853.652	647.6
854.057	674.6
854.462	655.6
854.867	660
855.272	684.4
855.677	657.2
856.082	640.4
856.487	639.4
856.893	657.4
857.298	649.6
857.704	644.8
858.11	663
858.516	663.2
858.922	656.6
859.328	658.6
859.734	659.6
860.14	658
860.525	659.2
860.931	652
861.338	652.2
861.745	656.2
862.151	663
862.558	655.8
862.965	650
863.372	648
863.779	654
864.186	673
864.572	654.4
864.98	675.6
865.387	682.6
865.795	639.8
866.203	659.4
866.61	641.2
867.018	663
867.405	651.6
867.813	641.8
868.221	646.2
868.63	648
869.038	665.2
869.425	712
869.834	658.4
870.243	647.6
870.652	639.8
871.039	660.8
871.448	650
871.857	658
872.266	656.8
872.654	654.8
873.064	657.6
873.473	661.6
873.883	649.2
874.271	638.2
874.681	675.6
875.091	646.2
875.48	656.6
875.89	669.8
876.3	647
876.689	639.4
877.1	645
877.51	653.6
877.9	680.4
878.31	645.4
878.721	688.8
879.111	652
879.522	652.4
879.933	643.4
880.323	650.2
880.734	651.2
881.125	659.4
881.536	650.6
881.948	645.2
882.338	659
882.75	660.8
883.141	642.2
883.553	658.6
883.944	687
884.356	663
884.769	646.2
885.16	642.4
885.573	647.6
885.964	643.8
886.377	643.6
886.768	646.8
887.181	655
887.573	646
887.987	653.6
888.378	655.6
888.792	656.6
889.184	704.4
889.598	649.4
889.99	657
890.383	644
890.797	640.6
891.19	657.4
891.604	639
891.997	642.4
892.411	634.2
892.805	639.4
893.198	655.2
893.613	636
894.006	646
894.421	635.6
894.815	649
895.209	650
895.624	704
896.018	671.4
896.412	641.2
896.828	647.8
897.222	661.8
897.617	648.4
898.033	670.8
898.427	650.6
898.822	653.6
899.239	640.2
899.634	644
900.029	668
900.424	640.8
900.841	632.8
901.236	654.4
901.632	649.6
902.027	716
902.445	660.2
902.841	653.2
903.237	647
903.633	656.2
904.05	655.6
904.447	659.8
904.843	659.2
905.24	654
905.636	647
906.033	653.8
906.451	662.8
906.848	646.6
907.246	655
907.643	642.4
908.04	657.8
908.438	671.6
908.835	658.8
909.254	655.2
909.652	655.2
910.05	648
910.448	646.2
910.846	662.2
911.244	646.2
911.643	652.2
912.041	652.6
912.44	667.4
912.839	646.2
913.237	641.4
913.636	646.6
914.035	662
914.434	650.4
914.834	666.4
915.233	662.4
915.633	658.8
916.032	649.8
916.432	647
916.832	664.2
917.232	651.8
917.632	638.8
918.032	649
918.432	655.6
918.833	646
919.233	641.2
919.634	641
920.035	650.6
920.436	642.4
920.837	649.6
921.238	638.8
921.639	647.8
922.019	653.2
922.42	650
922.822	654.6
923.224	654
923.625	656
924.027	649.4
924.429	671.4
924.81	652.6
925.212	655.2
925.615	653.2
926.017	653.6
926.42	664
926.801	657.6
927.204	646
927.607	660.4
928.01	662.8
928.413	644.8
928.795	632.4
929.199	651.8
929.602	650.4
930.006	640
930.388	647.6
930.792	659.4
931.196	650
931.579	682.2
931.983	648.6
932.388	695.8
932.771	637.8
933.176	640
933.58	646.4
933.964	658.4
934.369	638.4
934.774	659.2
935.158	646.2
935.563	651.4
935.947	652.2
936.353	657.2
936.759	649
937.143	657
937.549	650.6
937.934	667.8
938.34	669.6
938.746	645.6
939.131	652
939.538	651.2
939.923	647.4
940.33	644.8
940.716	652.8
941.123	656.2
941.508	663.8
941.916	665
942.302	660.8
942.709	653
943.096	646
943.503	655
943.89	649.4
944.298	651.8
944.685	682.2
945.072	641.6
945.48	666.2
945.867	642.2
946.276	640.2
946.663	677
947.051	670
947.46	658.8
947.848	649
948.257	646.8
948.645	657.6
949.033	648.8
949.443	644.6
949.831	693.4
950.22	648.4
950.63	663.2
951.018	690
951.407	654.8
951.796	639.8
952.207	665.2
952.596	666
952.985	641.2
953.375	691.2
953.786	653.8
954.176	640.6
954.566	664.2
954.956	644.8
955.367	642.4
955.758	666.4
956.148	634
956.539	664.4
956.929	641.2
957.341	639
957.732	650.4
958.123	661.4
958.515	640.8
958.906	667
959.297	643.2
959.689	644.2
960.102	650.8
960.494	653.8
960.886	653.2
961.278	640.4
961.67	680
962.062	683.4
962.455	644
962.847	639.8
963.24	645
963.633	648.8
964.026	641
964.419	645.6
964.812	662.4
965.206	641
965.599	657.4
965.993	642.6
966.386	642
966.78	658.8
967.174	662.4
967.569	642
967.963	645.2
968.357	645.2
968.752	642.4
969.146	643
969.541	642
969.936	652
970.331	656.4
970.705	643.2
971.1	651
971.496	656.6
971.892	644.6
972.287	644.2
972.683	657.2
973.079	642.4
973.454	665.2
973.85	659
974.247	662.8
974.643	672.2
975.04	646.8
975.415	645.6
975.812	644
976.209	648.8
976.607	638.2
976.982	664.8
977.38	672
977.778	651.6
978.175	652
978.552	650.2
978.95	654
979.348	662
979.725	697.6
980.123	648.8
980.522	653
980.899	646.2
981.298	645.6
981.697	644.2
982.075	646.8
982.474	636.4
982.852	662.8
983.251	658
983.651	647
984.029	640.6
984.429	645.8
984.808	629.2
985.208	640.4
985.609	637
985.987	627.6
986.388	636.2
986.768	651.2
987.168	632.2
987.548	648.2
987.949	658.6
988.329	650.8
988.731	631.4
989.111	644.8
989.491	639.8
989.893	641
990.273	650.4
990.676	646.8
991.057	640
991.459	647.4
991.84	644.2
992.221	635.2
992.624	661.6
993.006	647.6
993.388	651.2
993.791	648.8
994.173	649.4
994.576	688.8
994.959	632.2
995.341	652
995.724	645.6
996.128	642
996.511	647.4
996.894	647.2
997.298	646.8
997.681	651
998.065	659.4
998.448	646
998.854	654.8
999.237	641.6
999.621	654.4
1000.01	660.8
1000.39	651
1000.8	636.6
1001.18	649
1001.56	652.2
1001.95	639.6
1002.33	646.4
1002.72	643.4
1003.13	650.4
1003.51	640.2
1003.9	641
1004.28	666
1004.67	648.6
1005.06	645.6
1005.44	683.2
1005.83	639.6
1006.21	645.8
1006.6	641
1006.99	662.4
1007.37	663.4
1007.76	643.2
1060.12	641.8
1060.51	639.2
1060.89	660
1061.28	667.4
1061.67	668.8
1062.06	652.6
1062.45	655
1062.83	652.4
1063.22	654.8
1063.61	691.8
1064	661.2
1064.39	643.8
1064.78	640
1065.14	664
1065.53	648.4
1065.92	648.6
1066.31	640.2
1066.7	653
1067.09	667.6
1067.46	657
1067.85	644.6
1068.24	641
1068.63	662.2
1069.02	635.2
1069.39	649.2
1069.78	646.8
1070.17	647.8
1070.57	641
1070.93	654.6
1071.33	644
1071.72	652.6
1072.11	635.4
1072.48	650.6
1072.87	647.4
1073.26	652.8
1073.64	644
1074.03	639.8
1074.4	648.8
1074.79	644.8
1075.19	647.2
1075.56	649.4
1075.95	653
1076.34	652
1076.72	637.6
1077.11	657.6
1077.48	652.2
1077.88	648.4
1078.25	639.6
1078.64	655.2
1079.02	655.4
1079.41	659.2
1079.78	646.2
1080.18	641
1080.55	724.2
1080.95	643.8
1081.32	651
1081.72	648.2
1082.09	654.6
1082.49	636.6
1082.86	648.4
1083.24	640
1083.63	637
1084.01	657.4
1084.38	653.4
1084.78	650
1085.16	656.4
1085.55	667.6
1085.93	665.6
1086.31	638.6
1086.7	688
1087.08	646.8
1087.46	650
1087.83	648
1088.23	664
1088.61	640.8
1088.99	656.6
1089.36	644.8
1089.76	641
1090.14	644.8
1090.52	647.6
1090.9	651.2
1091.27	653
1091.67	668.4
1092.05	659.6
1092.43	645.2
1092.81	656.8
1093.19	652.6
1093.57	650
1093.95	641.6
1094.35	663
1094.73	660.8
1095.11	642.6
1095.49	653.6
1095.87	647.8
1096.25	665.8
1096.63	652.8
1097.01	648.8
1097.39	653.4
1097.77	654.4
1098.15	647.4
1098.53	645.2
1098.91	649.4
1099.29	639.4
1099.68	659.4
1100.06	658.4
1100.44	646.8
1100.82	652.8
1101.18	652.2
1101.56	648.6
1101.95	640.2
1102.33	647.4
1102.71	641
1103.1	637.2
1103.48	634
1103.86	633.4
1104.22	646.4
1104.61	647.4
1104.99	654.4
1105.38	636.4
1105.76	645.8
1106.12	641.4
1106.51	682.2
1106.89	660
1107.26	648.4
1107.64	657.8
1108.03	650.2
1108.41	640.2
1108.78	652.4
1109.16	641.4
1109.55	646.2
1109.91	636.6
1110.3	630.6
1110.69	650.8
1111.05	644.4
1111.44	644.6
1111.8	644.6
1112.19	647
1112.58	653
1112.94	638.8
1113.33	642
1113.7	632.4
1114.09	637.4
1114.45	637.8
1114.84	643.6
1115.21	654
1115.6	642.2
1115.96	646
1116.35	645
1116.72	644.8
1117.11	652.8
1117.48	640.4
1117.85	644.2
1118.24	664.4
1118.6	649.6
1118.99	642.8
1119.36	647.6
1119.73	650
1120.12	654.2
1120.49	638
1120.86	661.4
1121.25	643.8
1121.62	638.8
1121.99	637.2
1122.38	660
1122.76	648.8
1123.13	645.8
1123.5	649
1123.89	656.8
1124.26	633.4
1124.63	646.2
1125	632.6
1125.4	635.8
1125.77	636.2
1126.14	622
1126.51	635
1126.88	648
1127.26	641.4
1127.63	628
1128.02	643.2
1128.4	632.6
1128.77	644.6
1129.14	646.8
1129.52	643.8
1129.89	650.6
1130.26	631.4
1130.64	640.4
1131.01	641.2
