#lambda/nm	C1
208.295	539.2
208.67	483
209.045	450
209.419	455.2
209.794	680.4
210.169	666
210.544	796.4
210.919	691.2
211.295	674.4
211.67	686.8
212.045	676.6
212.421	676
212.796	724.4
213.172	679.6
213.547	670.2
213.923	682
214.299	676.8
214.675	686
215.051	686.8
215.427	691
215.803	693.6
216.179	681.6
216.555	673.8
216.932	695
217.308	688.6
217.684	675.4
218.061	687.6
218.438	687.4
218.814	684.2
219.191	686.8
219.568	677
219.945	682.8
220.322	688
220.699	693.2
221.076	693.6
221.453	690.8
221.83	676.4
222.208	676
222.585	671.2
222.962	693.8
223.34	688.4
223.717	667.6
224.095	677.6
224.473	681.4
224.851	678.8
225.229	666.4
225.607	696.6
225.985	671.8
226.363	684.8
226.741	684.2
227.119	674.8
227.497	699.2
227.876	668.2
228.254	694
228.633	691.6
229.011	681.4
229.39	693.6
229.769	684.2
230.148	690.4
230.527	704.4
230.905	676.4
231.284	676.4
231.664	675.6
232.043	693.2
232.422	691
232.801	677.2
233.181	686.6
233.56	678.4
233.94	684.6
234.319	664.4
234.699	677
235.079	724
235.458	717.8
235.838	707
236.218	670.8
236.598	673.6
236.978	674.6
237.358	676.2
237.738	673.4
238.119	684
238.499	664.2
238.88	687
239.26	703.6
239.641	669.6
240.021	683.4
240.402	684.6
240.783	680.2
241.163	676.8
241.544	682.6
241.925	687.4
242.306	697.4
242.687	678.4
243.069	684.8
243.45	698
243.831	679.8
244.212	674
244.594	727.4
244.975	695.6
245.357	680.6
245.739	680.6
246.12	680.4
246.502	697
246.884	672.8
247.266	691.4
247.648	685.4
248.03	703.8
248.412	687.2
248.794	684.8
249.176	679.6
249.559	693.6
249.941	671
250.323	665.2
250.706	676.4
251.089	679.2
251.471	682.8
251.854	677.8
252.237	683.6
252.62	693.8
253.002	682.6
253.385	677.4
253.769	700.6
254.152	670.2
254.535	692.8
254.918	666.2
255.301	676
255.685	676
256.068	671
256.452	710.2
256.835	697
257.219	695.2
257.603	700
257.986	678.2
258.37	698
258.754	673.6
259.138	691
259.522	697.2
259.906	693.6
260.29	680.6
260.675	681.2
261.059	692.6
261.443	677.8
261.828	692.4
262.212	694.2
262.597	671.4
262.981	671.8
263.366	696
263.751	681.6
264.136	681.2
264.521	674.6
264.906	677.6
265.291	693.6
265.676	681.4
266.061	685.6
266.446	700
266.831	688.6
267.217	701.8
267.602	682.8
267.987	678.6
268.373	679.8
268.759	696.8
269.144	691.6
269.53	682.2
269.916	677
270.302	673.6
270.688	690.6
271.074	688.2
271.46	695.8
271.846	712.8
272.232	686.8
272.618	680.6
273.004	677.4
273.391	693.4
273.777	698.6
274.164	693.2
274.55	692.4
274.937	686.8
275.324	685.4
275.71	688.6
276.097	692.6
276.484	669.6
276.871	687.4
277.258	685.8
277.645	668.2
278.032	681.8
278.419	679.2
278.807	697
279.194	670.6
279.581	677
279.969	694.8
280.356	681.8
280.744	691.6
281.131	716.2
281.519	690
281.907	676.4
282.295	680.8
282.682	703.2
283.07	693.6
283.458	695
283.846	694.2
284.235	700.2
284.623	693.2
285.011	666.8
285.399	681
285.788	685.8
286.176	670
286.565	691.4
286.953	670.6
287.342	679
287.731	678.8
288.119	681
288.508	684.8
288.897	682.4
289.286	672.8
289.675	686
290.064	692.2
290.453	682
290.821	685
291.21	710.2
291.599	680.8
291.989	686.6
292.378	689.8
292.768	709.4
293.157	688.4
293.547	686.6
293.936	680.2
294.326	684.6
294.716	686.8
295.106	683.8
295.496	695.2
295.886	694.4
296.276	681.6
296.666	678
297.056	685.2
297.446	669
297.836	706.8
298.227	685.6
298.617	682.4
299.008	699.2
299.398	700
299.789	686.4
300.179	692.2
300.57	699.4
300.961	682
301.352	681.6
301.742	690.4
302.133	690.8
302.524	681.2
302.915	687.8
303.307	685.4
303.698	691.2
304.089	686.4
304.48	682.4
304.872	695.8
305.263	686.8
305.655	677.6
306.046	690.8
306.438	686.8
306.829	676.8
307.221	702.2
307.613	696
308.005	691.4
308.397	705.4
308.789	703.2
309.181	720.4
309.573	708.6
309.965	702.6
310.357	690
310.749	701.8
311.142	677
311.534	686.2
311.926	696.6
312.319	696.8
312.711	674.8
313.104	696.8
313.497	690.2
313.889	735.4
314.282	705.4
314.675	717.4
315.068	682.8
315.461	690.6
315.854	721.4
316.247	701.8
316.64	687
317.033	691.2
317.405	690.4
317.798	690.8
318.192	689.4
318.585	679.4
318.979	689.4
319.372	674.2
319.766	683.2
320.16	695.6
320.553	703
320.947	717.8
321.341	684.2
321.735	688
322.129	666.4
322.523	721
322.917	684.6
323.311	696.4
323.705	687.2
324.099	686.4
324.494	703.6
324.888	696.2
325.282	681.8
325.677	699.2
326.071	699
326.466	697.4
326.861	694
327.255	706.4
327.65	696.6
328.045	706
328.44	681.8
328.835	688
329.23	679.4
329.625	715.6
330.02	679.8
330.415	709.8
330.81	693.2
331.206	685
331.601	682.2
331.996	694.4
332.37	715
332.766	678.8
333.161	712
333.557	681.4
333.953	697.2
334.348	1178.6
334.744	685.6
335.14	679
335.536	682.6
335.932	705.6
336.328	691.4
336.724	698.4
337.12	693.2
337.516	680
337.913	688
338.309	700.4
338.705	686.6
339.102	692.6
339.498	680.8
339.895	711.8
340.291	678.2
340.688	694.4
341.085	676
341.481	689.2
341.878	680.2
342.275	704.6
342.672	681.2
343.069	693.4
343.466	661
343.842	696.8
344.239	678
344.636	678.8
345.033	671.4
345.431	680.8
345.828	685.6
346.225	680.4
346.623	718.8
347.02	680.6
347.418	693.2
347.816	709.2
348.213	675.6
348.611	693
349.009	678.4
349.407	698
349.805	671.2
350.203	666.6
350.601	700
350.999	685
351.397	735
351.795	680.2
352.193	689
352.57	697.2
352.969	694
353.367	673.8
353.766	674.6
354.164	681.8
354.563	695
354.961	678
355.36	675.4
355.759	682.8
356.158	677.8
356.557	667.2
356.956	667.8
357.355	675.6
357.754	684.6
358.153	687.4
358.552	706.6
358.951	673.2
359.35	689.6
359.75	673
360.149	673.4
360.527	660.8
360.926	673.4
361.326	683.8
361.726	670.8
362.125	671.4
362.525	690.8
362.925	679.2
363.325	679.6
363.724	680
364.124	677.4
364.524	675.8
364.924	684.6
365.324	691.4
365.725	654.4
366.125	682.2
366.525	680
366.904	666
367.304	668
367.705	714.8
368.105	692.8
368.506	681.4
368.906	673.6
369.307	676.4
369.708	683.8
370.108	668.6
370.509	685
370.91	682.6
371.311	679.8
371.712	681.4
372.113	673.6
372.514	662
372.894	677.6
373.295	672.2
373.696	683.8
374.097	686.2
374.499	722.8
374.9	673.2
375.301	669.6
375.703	672
376.105	672.8
376.506	675.2
376.908	682.2
377.309	674.4
377.711	685.4
378.113	676
378.493	675.4
378.895	676.8
379.297	694.2
379.699	667.4
380.102	680.2
380.504	672.6
380.906	667.2
381.308	702.4
381.71	677.8
382.113	686.6
382.515	678.2
382.918	688.6
383.299	670.6
383.701	695.6
384.104	670.6
384.507	653.8
384.909	678.2
385.312	667.6
385.715	665.2
386.118	675
386.521	658
386.924	680.4
387.327	673
387.709	654.6
388.112	670.4
388.515	677
388.918	676.6
389.322	680.6
389.725	667.2
390.129	706
390.532	675
390.936	665.2
391.339	672.6
391.743	674
392.125	668.2
392.529	688.4
392.933	687.4
393.337	676.4
393.74	666.8
394.144	683.4
394.548	667.4
394.953	679.2
395.357	685.4
395.761	670.2
396.144	674.6
396.548	675.8
396.952	682.4
397.357	666.2
397.761	672
398.166	678.6
398.57	670
398.975	662
399.379	685
399.763	733.2
400.168	676.6
400.572	678
400.977	669
401.382	696.4
401.787	690.2
402.192	697.8
402.597	700
403.002	655.8
403.386	706.8
403.791	699.4
404.197	671.4
404.602	682.2
405.007	680.8
405.413	672
405.818	675.6
406.224	668.6
406.608	671
407.014	664.8
407.42	692
407.825	669.2
408.231	689.8
408.637	674.6
409.043	704
409.449	676.4
409.834	671.8
410.24	688
410.646	692.6
411.052	683.2
411.458	687
411.865	690
412.271	689
412.677	678.2
413.062	686.2
413.469	674.4
413.875	707
414.282	694.6
414.689	681.6
415.095	684.4
415.502	667.2
415.888	686
416.294	657.8
416.701	723.4
417.108	677.6
417.515	693.4
417.923	674.8
418.33	697.2
418.715	689.4
419.123	677
419.53	679.6
419.937	681.2
420.345	695.6
420.752	683.4
421.16	697.2
421.546	684.8
421.953	687.4
422.361	674.2
422.769	678.8
423.177	672.4
423.585	702.2
423.992	703
424.379	695.4
424.787	687.4
425.195	711.6
425.603	676.4
426.011	695.8
426.419	693.8
426.806	688.8
427.214	685.6
427.623	689.8
428.031	694.4
428.44	691.6
428.848	697
429.235	696
429.644	689.4
430.053	689.8
430.461	699.2
430.87	712.4
431.279	704.6
431.666	677
432.075	691.2
432.484	698.4
432.893	685.8
433.302	703
433.711	729.2
434.099	684.4
434.508	678.6
434.918	666.4
435.327	695.6
435.737	675.8
436.125	682.8
436.534	691.8
436.944	691
437.353	696.2
437.763	712.2
438.173	686.4
438.561	699.4
438.971	669.4
439.381	702.2
439.791	701
440.201	675.2
440.589	700.8
440.999	718.6
441.409	714
441.819	688.4
442.23	719
442.619	717.4
443.029	704.2
443.439	711.8
443.85	725.4
444.26	729
444.649	722.6
445.06	718.6
445.471	725.2
445.881	721.2
446.292	747.4
446.682	743.2
447.092	712.6
447.503	785.6
447.914	730
448.325	729.6
448.715	730
449.126	730.6
449.537	731.4
449.948	738.2
450.338	738.6
450.75	744.4
451.161	745.2
451.572	747.6
451.984	732.6
452.374	727.8
452.786	736.6
453.197	754.6
453.609	748.2
453.999	734.4
454.411	732
454.823	751
455.235	750
455.647	737.6
456.037	749.4
456.449	733.8
456.862	756
457.274	754.4
457.665	741.2
458.077	763.6
458.489	790.2
458.902	758.8
459.293	754.4
459.705	753
460.118	744.4
460.53	765.6
460.921	751.4
461.334	760.6
461.747	755.8
462.16	766
462.551	768.4
462.964	773.2
463.377	748.2
463.79	760.8
464.182	760.6
464.595	752.4
465.008	773.2
465.421	768
465.813	759.8
466.226	768.4
466.64	770.4
467.053	828.4
467.445	785.6
467.859	787.8
468.272	778
468.686	782.8
469.078	770.6
469.492	754.2
469.906	774.8
470.298	792.2
470.712	763.4
471.126	842.2
471.54	759.8
471.933	758.4
472.347	767.8
472.761	763.2
473.175	762
473.568	761.6
473.982	766.4
474.397	768.4
474.79	769.8
475.204	772.6
475.619	764.8
476.033	770.6
476.426	768
476.841	764.6
477.256	801.2
477.649	761.8
478.064	766.2
478.479	766.4
478.872	766.6
479.287	754.2
479.702	770.2
480.118	777
480.511	771.4
480.927	776
481.342	758.8
481.736	761.8
482.151	763.4
482.566	789.4
482.96	772.4
483.376	774.2
483.792	767.6
484.186	779.4
484.602	762.4
485.017	763
485.412	769.6
485.827	768.8
486.243	768.4
486.638	783.2
487.054	776.4
487.47	788.6
487.865	765.4
488.281	767.6
488.697	747.4
489.092	764.8
489.508	754.8
489.925	777.8
490.32	763.4
490.736	763
491.153	767
491.548	762.8
491.964	783.6
492.381	742.6
492.776	760.8
493.193	752.4
493.61	759.4
494.006	760.2
494.422	769
494.84	744.6
495.235	767.8
495.652	759.6
496.069	761.4
496.465	742.4
496.883	761.8
497.3	792.6
497.696	746.4
498.113	751
498.509	741
498.927	737
499.344	744.4
499.741	740.6
500.158	763.6
500.576	751.6
500.973	743
501.39	734.8
501.787	744.4
502.205	745
502.623	743
503.02	729.6
503.438	739.2
503.856	744.4
504.253	745.2
504.671	744.4
505.068	730
505.486	747.6
505.905	769
506.302	751
506.72	738.4
507.118	738.2
507.536	747
507.955	744
508.352	735.8
508.771	738.6
509.169	748.6
509.587	721
510.006	738
510.404	731.2
510.823	727.2
511.221	739.6
511.64	722
512.038	750.2
512.457	730.2
512.877	732.6
513.275	720
513.694	730.2
514.092	728
514.512	733.4
514.91	727.4
515.33	730
515.749	730.6
516.148	731.6
516.568	723.6
516.966	722.6
517.386	727.4
517.785	730.6
518.205	727.6
518.603	720.8
519.024	730
519.444	735.4
519.843	731.4
520.263	731
520.662	719.4
521.082	720.2
521.481	722
521.902	717.8
522.301	725.2
522.722	725.8
523.121	724.4
523.542	704.8
523.963	719
524.362	716.4
524.783	718.4
525.183	716.6
525.604	720
526.003	711.6
526.425	711.8
526.824	713.6
527.246	722.2
527.646	729
528.067	716.4
528.467	712.2
528.888	717.6
529.289	712.4
529.71	710.8
530.11	704.4
530.532	704.6
530.932	696.4
531.354	697.8
531.755	758.2
532.176	711
532.577	705.2
532.999	709.8
533.4	700.2
533.822	717
534.223	699.4
534.645	692
535.046	697.2
535.468	710.2
535.869	718.2
536.292	704.6
536.693	744.2
537.115	696.8
537.516	690.6
537.939	697.2
538.34	720
538.742	714.8
539.165	703.6
539.566	696
539.989	684.6
540.391	689.2
540.814	697.6
541.216	698.8
541.639	693.6
542.041	710.4
542.464	698
542.866	693.2
543.268	690.6
543.691	702.4
544.093	706.6
544.517	722.4
544.919	691.6
545.343	721.2
545.745	691.2
546.147	696.2
546.571	686.6
546.974	674.2
547.398	689.8
547.8	711.6
548.224	683
548.627	680.4
549.03	696
549.454	681.2
549.857	669.4
550.281	685.4
550.684	680.4
551.087	705.8
551.512	692.6
551.915	697
552.34	679.2
552.743	684.4
553.146	692.8
553.571	688.4
553.975	715.8
554.399	682
554.803	742
555.207	687.2
555.632	682.8
556.036	697
556.461	674.8
556.865	683
557.268	678.8
557.694	687.6
558.098	693.8
558.502	683
558.927	682.2
559.332	686
559.736	681.2
560.162	695.6
560.566	685
560.992	696.2
561.396	694.2
561.801	671
562.227	675.6
562.631	673.6
563.036	673.2
563.462	692.2
563.867	686.2
564.272	660.4
564.698	679.4
565.103	674
565.508	705.6
565.935	681.6
566.34	679
566.745	692.2
567.172	679
567.577	705
567.982	696.6
568.409	682.6
568.815	671.6
569.22	685.4
569.626	693.8
570.053	659.6
570.459	690
570.865	675.4
571.292	697.4
571.698	690
572.104	661.8
572.531	670.4
572.937	679.6
573.343	679.2
573.75	682.4
574.177	679.6
574.583	677.6
574.99	675
575.396	688
575.824	669.4
576.231	686.4
576.637	669.8
577.065	697.2
577.472	672.8
577.879	678
578.286	682.8
578.714	671.2
579.121	676.4
579.528	675.4
579.935	681.2
580.364	670.6
580.771	654.2
581.178	663.4
581.585	678.2
582.014	680.6
582.421	673
582.829	671.4
583.236	684.8
583.644	662
584.073	664.2
584.481	674
584.889	669
585.296	677.8
585.726	666.4
586.134	662.8
586.542	668.6
586.95	696.6
587.358	661
587.787	676.4
588.196	658.6
588.604	663.2
589.012	667.8
589.421	665
589.851	665
590.259	672.6
590.668	665.8
591.076	715.6
591.485	664.2
591.894	664.8
592.324	684.6
592.733	675.6
593.142	658
593.551	664.2
593.96	681.4
594.369	653
594.8	660
595.209	663.2
595.618	646.2
596.028	649.8
596.437	654.4
596.847	665.4
597.256	661.8
597.687	672.2
598.097	667.4
598.507	646.6
598.917	669.8
599.327	670.4
599.736	657
600.146	683.2
600.556	661.2
600.988	688.6
601.398	666.6
601.808	680.8
602.219	657.4
602.629	659.2
603.039	666
603.45	704.2
603.86	676
604.271	682.6
604.703	659.6
605.114	663
605.525	662.6
605.935	673
606.346	682.6
606.757	673.2
607.168	661.8
607.579	668.2
607.99	683.6
608.402	668
608.813	672.2
609.224	663.2
609.636	658.2
610.047	657.4
610.48	668.8
610.892	683.2
611.303	667.8
611.715	658.4
612.127	653.4
612.539	657.6
612.95	663.6
613.362	641.2
613.774	654
614.186	655
614.599	668
615.011	674.4
615.423	660.6
615.835	655.4
616.248	648
616.66	665.8
617.073	661.6
617.485	662.6
617.898	669.6
618.311	661.2
618.723	659.8
619.136	691
619.549	680.4
619.962	688.4
620.375	660
620.788	664.6
621.201	662
621.614	673.6
622.028	657.8
622.441	669
622.854	679.4
623.268	660.8
623.681	667.2
624.095	664
624.509	675.4
624.922	670
625.336	649.8
625.728	661.6
626.142	672.4
626.556	683.4
626.97	671.4
627.384	659.6
627.799	665.6
628.213	683.2
628.627	666.8
629.041	660.2
629.456	659
629.87	657.4
630.285	672.6
630.699	678.6
631.093	656.8
631.507	674.6
631.922	654.6
632.337	677.4
632.752	659.2
633.167	672.4
633.582	659.4
633.997	652.2
634.412	647.8
634.806	660.4
635.221	646
635.637	672
636.052	649.6
636.468	661.4
636.883	679.8
637.299	668
637.715	648
638.109	660.4
638.525	649.2
638.941	677.6
639.357	667.2
639.773	680
640.189	657.8
640.584	654.6
641	663.6
641.416	648.2
641.832	653.2
642.249	650.8
642.665	658
643.06	668.8
643.477	676.8
643.894	637.6
644.31	661.8
644.727	655
645.123	664
645.54	646.2
645.957	663.6
646.374	679.8
646.77	656.8
647.187	690.6
647.604	661.8
648.021	643
648.439	656
648.835	654.2
649.252	660
649.67	652
650.088	664.6
650.484	661.2
650.902	665
651.32	669.8
651.738	656.6
652.134	656.4
652.552	674.4
652.971	665
653.389	653.4
653.786	679.4
654.204	684
654.622	656
655.019	660.4
655.438	668.2
655.857	666.6
656.275	669.6
656.673	650.4
657.091	742.8
657.51	650
657.908	668.8
658.327	678.2
658.746	650.2
659.144	654.6
659.563	687
659.982	656
660.38	659.4
660.8	664.2
661.219	673.4
661.617	669.6
662.037	666.8
662.457	681.2
662.855	645.4
663.275	693.4
663.695	662
664.094	656.4
664.514	660.2
664.934	655.2
665.333	678.4
665.753	643.6
666.152	644.4
666.572	661.4
666.993	677.6
667.392	657.2
667.812	654
668.212	646.4
668.632	669
669.053	651.2
669.453	661.8
669.874	662.4
670.273	660.4
670.694	647.8
671.116	667.6
671.515	663.8
671.937	651.8
672.337	653.2
672.758	641.8
673.158	665
673.58	649.4
673.98	665.4
674.402	669.8
674.824	652.6
675.224	655.4
675.646	642.8
676.047	652.6
676.469	659.6
676.869	663.8
677.292	658
677.693	652.8
678.115	660.8
678.516	670
678.939	667.2
679.34	658
679.762	664.6
680.164	663.8
680.586	648.8
680.988	663.4
681.411	678.6
681.812	658.2
682.236	644.8
682.637	646
683.061	645.6
683.462	656.6
683.864	651.8
684.288	660.8
684.69	641.2
685.114	672
685.516	668.6
685.94	660
686.342	668.2
686.766	643.6
687.168	653.2
687.571	667.4
687.995	656.2
688.398	649.4
688.822	648.8
689.225	675.4
689.628	676.2
690.052	650
690.456	662.8
690.88	658.4
691.284	647.8
691.687	656.6
692.112	641.6
692.515	643.2
692.919	660.8
693.344	653.2
693.747	652.4
694.173	655.8
694.577	670.8
694.98	658.4
695.406	652.6
695.81	661.2
696.214	654.8
696.64	655.8
697.044	659
697.448	666.4
697.874	650.6
698.279	658.8
698.684	650.8
699.11	643
699.514	639.8
699.919	647.4
700.324	653.6
700.75	658.8
701.156	659.4
701.561	664.6
701.987	665.4
702.393	669
702.798	672
703.203	660.4
703.63	647.6
704.036	648
704.442	656.4
704.847	642.4
705.274	644.6
705.68	652.2
706.086	670.4
706.492	649.4
706.92	656
707.326	668
707.732	652.8
708.139	643
708.545	645.4
708.973	648.2
709.38	659.4
709.786	645.8
710.193	680.8
710.6	659.4
711.028	647.2
711.435	654.4
711.842	653.6
712.249	651
712.656	652.2
713.064	669.8
713.492	653.2
713.9	653
714.307	663.8
714.715	661.8
715.123	655.4
715.53	660
715.938	669.4
716.367	656.6
716.775	655.4
717.184	649.8
717.592	649
718	672.8
718.408	685.8
718.816	705.6
719.225	661.6
719.633	661.4
720.042	653.6
720.472	661.2
720.881	675.6
721.29	660.8
721.699	647.8
722.108	657.4
722.517	665.6
722.926	654
723.335	665
723.744	660.8
724.154	657.2
724.563	658.2
724.973	655
725.382	662
725.792	649.8
726.202	648
726.612	679.4
727.022	653.4
727.432	659
779.813	645.2
780.223	710.8
780.634	654.6
781.044	653
781.454	651.4
781.865	669.8
782.276	642.6
782.686	670.2
783.097	646.8
783.508	662.8
783.919	659
784.33	666.4
784.741	671.6
785.152	653.8
785.563	638.6
785.974	644.2
786.386	658.2
786.776	653.2
787.188	650.8
787.599	642
788.011	659.8
788.423	653.6
788.835	650.8
789.247	646
789.659	648.8
790.071	650.4
790.483	703
790.874	649.2
791.286	659
791.699	656.6
792.111	655.8
792.524	650.8
792.937	647.4
793.349	645.4
793.741	645.2
794.154	650.8
794.567	670.8
794.98	649.8
795.393	635.8
795.785	671
796.198	647.4
796.612	651.8
797.026	644.6
797.439	634
797.831	651.6
798.245	639.4
798.659	649.2
799.073	648.8
799.487	646
799.88	652.4
800.294	650.6
800.708	657.4
801.123	653.2
801.516	675.2
801.93	638.6
802.345	634.4
802.76	656.6
803.153	668.4
803.568	669.4
803.983	665.6
804.377	658.8
804.792	630.6
805.207	641
805.601	650.2
806.016	688.8
806.432	645
806.826	680.6
807.242	675.6
807.658	659.4
808.052	652.8
808.468	654.2
808.884	641.8
809.279	651
809.695	659.6
810.111	669
810.506	652.2
810.922	679
811.339	655.4
811.734	659.4
812.151	649.6
812.546	646.4
812.963	641.8
813.38	650.2
813.776	650.2
814.193	685.2
814.589	644.4
815.006	649.4
815.402	650
815.82	643.6
816.237	661.2
816.633	651.6
817.051	642.8
817.448	656.8
817.866	641
818.262	677.2
818.68	645
819.077	644.6
819.495	652
819.892	699
820.311	645.4
820.708	649.6
821.127	641.2
821.524	669.8
821.943	654.6
822.34	665.6
822.759	649.6
823.157	641.4
823.576	664.2
823.974	657.2
824.393	773.2
824.791	644.2
825.189	651.4
825.609	646.8
826.007	643.8
826.427	643.4
826.826	646
827.246	653.8
827.644	630.2
828.043	672.4
828.463	645.2
828.862	666.8
829.261	655
829.682	638.4
830.081	659.8
830.502	646.2
830.901	647.8
831.301	641.4
831.722	645.4
832.121	650.8
832.521	651.4
832.943	651.8
833.342	643.6
833.742	641.4
834.164	645.2
834.564	644
834.965	643
835.386	646
835.787	651.4
836.188	650.6
836.588	653.8
837.01	656
837.411	640.4
837.812	654.2
838.213	655
838.636	643.2
839.037	722
839.438	655.8
839.84	653.8
840.263	658.6
840.664	655.4
841.066	646.6
841.468	661.8
841.891	649.2
842.293	658.4
842.695	656.4
843.098	666
843.5	644.2
843.902	651
844.326	663
844.729	664.8
845.131	672.8
845.534	648.8
845.937	665.6
846.34	665.6
846.764	649.6
847.167	658.6
847.571	637.4
847.974	647.4
848.377	649.4
848.781	699.2
849.184	667.2
849.588	649
849.992	650.8
850.396	653.6
850.821	664.8
851.225	656.8
851.63	651.4
852.034	665
852.438	655
852.843	789.4
853.247	645.6
853.652	646.8
854.057	671
854.462	650.4
854.867	644.8
855.272	678
855.677	662
856.082	630
856.487	637.8
856.893	650.8
857.298	650
857.704	640.8
858.11	659.2
858.516	653.4
858.922	658.8
859.328	662.8
859.734	650.8
860.14	654
860.525	657.2
860.931	653.4
861.338	647.6
861.745	657.2
862.151	660.8
862.558	648.6
862.965	645.4
863.372	641.6
863.779	645.6
864.186	671.6
864.572	653
864.98	676.2
865.387	692.8
865.795	639
866.203	669.2
866.61	647
867.018	663.4
867.405	658.8
867.813	657
868.221	652.4
868.63	645
869.038	656.4
869.425	698
869.834	658
870.243	648
870.652	648.8
871.039	649.2
871.448	641
871.857	656.2
872.266	658.8
872.654	657.2
873.064	642
873.473	665.2
873.883	643.6
874.271	642.4
874.681	652.4
875.091	640.4
875.48	664.8
875.89	662
876.3	650.8
876.689	639.2
877.1	652.4
877.51	644.4
877.9	671
878.31	647.6
878.721	680
879.111	653.2
879.522	651.2
879.933	643.4
880.323	630.6
880.734	648.4
881.125	653.8
881.536	649.2
881.948	644
882.338	648.4
882.75	663
883.141	654
883.553	660.2
883.944	679.8
884.356	660.4
884.769	637.6
885.16	644
885.573	648.4
885.964	644
886.377	657
886.768	639.4
887.181	654.6
887.573	634.2
887.987	652.2
888.378	668.2
888.792	663.8
889.184	702.6
889.598	649
889.99	655.8
890.383	645.8
890.797	635.2
891.19	664.6
891.604	640.4
891.997	641.6
892.411	642.2
892.805	643.8
893.198	646.6
893.613	631.4
894.006	642
894.421	642.4
894.815	645
895.209	650.2
895.624	692.4
896.018	664.2
896.412	649.2
896.828	652.8
897.222	643.8
897.617	653
898.033	670.2
898.427	655.2
898.822	647.4
899.239	627.4
899.634	639.2
900.029	666.2
900.424	646.6
900.841	633.2
901.236	654.8
901.632	650.6
902.027	712.4
902.445	654.8
902.841	645.2
903.237	642
903.633	662.8
904.05	658.2
904.447	649
904.843	656.4
905.24	657.4
905.636	633.2
906.033	647.4
906.451	655.8
906.848	637.6
907.246	646
907.643	646.6
908.04	648.8
908.438	657.2
908.835	660.6
909.254	641.2
909.652	644.8
910.05	653.4
910.448	634.2
910.846	645
911.244	638.4
911.643	650.2
912.041	640.8
912.44	666.2
912.839	641.8
913.237	640.6
913.636	641.2
914.035	654.2
914.434	650.2
914.834	667.4
915.233	657
915.633	647
916.032	637
916.432	633
916.832	656.6
917.232	642
917.632	640.6
918.032	652.4
918.432	644.4
918.833	649.4
919.233	641.4
919.634	638.6
920.035	650.6
920.436	642.2
920.837	657.6
921.238	636.8
921.639	642
922.019	639.6
922.42	648.2
922.822	647.6
923.224	648.2
923.625	648.2
924.027	650.8
924.429	683.2
924.81	642.4
925.212	653.2
925.615	643.4
926.017	633.6
926.42	658.6
926.801	642.4
927.204	648.8
927.607	654
928.01	667.8
928.413	649
928.795	639.2
929.199	639.2
929.602	636.6
930.006	644.8
930.388	634.8
930.792	652.6
931.196	648.2
931.579	689.4
931.983	643
932.388	696.4
932.771	648.8
933.176	633.8
933.58	652.8
933.964	646.8
934.369	632
934.774	654.4
935.158	647.8
935.563	646.4
935.947	655.8
936.353	650.2
936.759	639.2
937.143	655
937.549	658.4
937.934	665
938.34	670.8
938.746	646.2
939.131	637.8
939.538	633.2
939.923	640.8
940.33	653.2
940.716	640
941.123	647.2
941.508	656
941.916	655.2
942.302	649.4
942.709	633.8
943.096	640.6
943.503	653.6
943.89	646.6
944.298	643.4
944.685	678
945.072	642.2
945.48	654.4
945.867	643.6
946.276	642.6
946.663	677
947.051	667.4
947.46	663.6
947.848	637.4
948.257	637.6
948.645	655.6
949.033	645.6
949.443	636.8
949.831	698
950.22	633
950.63	656.6
951.018	681.2
951.407	654
951.796	627
952.207	656.8
952.596	656.2
952.985	633.6
953.375	692.2
953.786	645.6
954.176	642.6
954.566	658.6
954.956	635.2
955.367	633
955.758	676.4
956.148	629.8
956.539	660.2
956.929	632.6
957.341	636.4
957.732	644.8
958.123	651.6
958.515	635.8
958.906	654.8
959.297	639.4
959.689	650
960.102	633.4
960.494	653.4
960.886	646
961.278	641
961.67	673.8
962.062	682.4
962.455	641
962.847	641.4
963.24	646
963.633	649.6
964.026	635.6
964.419	642.4
964.812	665.2
965.206	643.4
965.599	652
965.993	650.6
966.386	647.2
966.78	656.6
967.174	662.8
967.569	648
967.963	646.4
968.357	648.4
968.752	636.4
969.146	637
969.541	638.8
969.936	632
970.331	651.4
970.705	646.4
971.1	644
971.496	648.8
971.892	643.2
972.287	649.4
972.683	637.6
973.079	649.6
973.454	663.6
973.85	649.6
974.247	659.6
974.643	680.2
975.04	644.2
975.415	651.8
975.812	642
976.209	641.4
976.607	631.4
976.982	660.2
977.38	670.4
977.778	641.2
978.175	646
978.552	638.6
978.95	656.4
979.348	660.8
979.725	693
980.123	643
980.522	643.2
980.899	633.8
981.298	639.6
981.697	644.4
982.075	642.6
982.474	639.4
982.852	648.6
983.251	650.6
983.651	641.4
984.029	657.4
984.429	644.8
984.808	630.8
985.208	638.2
985.609	639.2
985.987	635.8
986.388	637.2
986.768	652.2
987.168	641.4
987.548	649
987.949	654.2
988.329	651.2
988.731	632
989.111	640.6
989.491	639.8
989.893	640.8
990.273	653.4
990.676	637.4
991.057	635
991.459	646
991.84	642.4
992.221	636.2
992.624	662.8
993.006	657.6
993.388	646.6
993.791	647.2
994.173	655.2
994.576	684.4
994.959	638
995.341	639
995.724	641.8
996.128	648.4
996.511	647
996.894	638.2
997.298	642.8
997.681	646.8
998.065	640
998.448	649
998.854	644.2
999.237	639.6
999.621	654.8
1000.01	668.2
1000.39	644.4
1000.8	636.4
1001.18	658.8
1001.56	652.8
1001.95	652.2
1002.33	654.4
1002.72	642.8
1003.13	643.4
1003.51	638.8
1003.9	645.6
1004.28	670.4
1004.67	638.6
1005.06	645
1005.44	688
1005.83	622.6
1006.21	647
1006.6	632
1006.99	650
1007.37	648.8
1007.76	643.8
1060.12	640.4
1060.51	637
1060.89	644.2
1061.28	646.8
1061.67	659
1062.06	656.4
1062.45	649.2
1062.83	641.8
1063.22	663.8
1063.61	697.6
1064	652.4
1064.39	653
1064.78	645.6
1065.14	655.6
1065.53	651.4
1065.92	641
1066.31	641.4
1066.7	651
1067.09	655.4
1067.46	659.6
1067.85	639.6
1068.24	641.4
1068.63	648.6
1069.02	640.6
1069.39	652.6
1069.78	631.8
1070.17	643
1070.57	634.6
1070.93	646.2
1071.33	640.6
1071.72	645.8
1072.11	639.8
1072.48	635.4
1072.87	642.4
1073.26	638.8
1073.64	636
1074.03	635.6
1074.4	636.6
1074.79	640.2
1075.19	646.4
1075.56	647.4
1075.95	642.4
1076.34	643
1076.72	639.4
1077.11	665.2
1077.48	660.2
1077.88	642.6
1078.25	641
1078.64	657
1079.02	660.8
1079.41	654.4
1079.78	642.2
1080.18	641.6
1080.55	720.2
1080.95	630.8
1081.32	638.4
1081.72	640.4
1082.09	643.2
1082.49	636.2
1082.86	645.8
1083.24	635.6
1083.63	623.6
1084.01	647.8
1084.38	655.2
1084.78	643.2
1085.16	652.4
1085.55	658.4
1085.93	656.4
1086.31	625
1086.7	673.2
1087.08	638.6
1087.46	634.6
1087.83	624.2
1088.23	654.8
1088.61	642.4
1088.99	645.6
1089.36	638
1089.76	643.4
1090.14	639
1090.52	645.8
1090.9	632.2
1091.27	649.6
1091.67	670.6
1092.05	647.8
1092.43	631
1092.81	652
1093.19	646.4
1093.57	644.4
1093.95	642.8
1094.35	655
1094.73	654.8
1095.11	640.6
1095.49	637.2
1095.87	636.6
1096.25	664.2
1096.63	650.8
1097.01	645.2
1097.39	642.4
1097.77	646.6
1098.15	642.8
1098.53	633.4
1098.91	636.2
1099.29	643.4
1099.68	653
1100.06	657.6
1100.44	648.4
1100.82	644.8
1101.18	652.8
1101.56	633
1101.95	628.6
1102.33	644.2
1102.71	647.2
1103.1	642.6
1103.48	632.4
1103.86	631.6
1104.22	648.8
1104.61	637.8
1104.99	636.6
1105.38	629.6
1105.76	642.8
1106.12	636.4
1106.51	685
1106.89	646.4
1107.26	645.4
1107.64	649.4
1108.03	633
1108.41	637.8
1108.78	638.4
1109.16	640.2
1109.55	652.4
1109.91	629.4
1110.3	629.2
1110.69	655.6
1111.05	640
1111.44	638.6
1111.8	642.4
1112.19	651.4
1112.58	644.6
1112.94	631.4
1113.33	633.2
1113.7	635.6
1114.09	637.8
1114.45	633.4
1114.84	635.4
1115.21	646
1115.6	642.8
1115.96	648.8
1116.35	646.2
1116.72	642
1117.11	660.8
1117.48	633.6
1117.85	650
1118.24	651.4
1118.6	644
1118.99	636.8
1119.36	650.6
1119.73	640.4
1120.12	640.8
1120.49	636.2
1120.86	650.2
1121.25	640.8
1121.62	635.4
1121.99	633.6
1122.38	653.2
1122.76	644.2
1123.13	638.8
1123.5	646
1123.89	647.2
1124.26	629.6
1124.63	648.4
1125	642.2
1125.4	629.2
1125.77	641.4
1126.14	620.6
1126.51	640.6
1126.88	640.8
1127.26	641
1127.63	622.6
1128.02	634.6
1128.4	622
1128.77	641.2
1129.14	641
1129.52	642.6
1129.89	648.6
1130.26	633
1130.64	631
1131.01	642.4
