#lambda/nm	C1
208.295	533.2
208.67	487.8
209.045	450.8
209.419	446.2
209.794	684
210.169	658
210.544	796.8
210.919	692.8
211.295	664.2
211.67	681.2
212.045	679.2
212.421	677.8
212.796	724.4
213.172	665.6
213.547	677.2
213.923	685
214.299	670.2
214.675	686.4
215.051	681.8
215.427	679.8
215.803	704.2
216.179	686.4
216.555	675.8
216.932	684.6
217.308	675.8
217.684	679.8
218.061	689.8
218.438	691.6
218.814	677.6
219.191	683.6
219.568	676.4
219.945	679
220.322	690.4
220.699	693.2
221.076	688.2
221.453	683.4
221.83	674.8
222.208	683.4
222.585	672
222.962	691
223.34	692
223.717	687.4
224.095	687.2
224.473	680
224.851	684.4
225.229	670.8
225.607	708.6
225.985	673.2
226.363	684.4
226.741	684.2
227.119	673.8
227.497	692
227.876	671.6
228.254	688.4
228.633	684.8
229.011	685.4
229.39	685.8
229.769	684.4
230.148	695.6
230.527	706.8
230.905	687.8
231.284	686
231.664	673.2
232.043	697.6
232.422	686.2
232.801	681.8
233.181	694.2
233.56	676.6
233.94	682.4
234.319	666.6
234.699	681.2
235.079	734
235.458	724.8
235.838	706.4
236.218	671
236.598	669.2
236.978	669.2
237.358	675.8
237.738	683.4
238.119	695.6
238.499	675.2
238.88	685
239.26	698
239.641	674.2
240.021	675.8
240.402	679.4
240.783	676.2
241.163	680.8
241.544	677.8
241.925	676.8
242.306	697.4
242.687	673.8
243.069	683.4
243.45	691.4
243.831	666.8
244.212	680.8
244.594	725.2
244.975	687.6
245.357	689.2
245.739	675
246.12	678.8
246.502	694.2
246.884	675.6
247.266	677.6
247.648	685.8
248.03	710
248.412	691
248.794	690.8
249.176	678
249.559	700.6
249.941	670.2
250.323	682.8
250.706	672.2
251.089	678.8
251.471	686
251.854	681.6
252.237	676.8
252.62	685.6
253.002	678.4
253.385	679.4
253.769	694
254.152	691.6
254.535	696
254.918	675
255.301	680
255.685	672
256.068	668.4
256.452	700.6
256.835	692.6
257.219	695.2
257.603	690
257.986	674.8
258.37	687.2
258.754	675.2
259.138	683.8
259.522	694.2
259.906	682
260.29	689.6
260.675	686
261.059	689.8
261.443	675
261.828	687.8
262.212	692.4
262.597	672.4
262.981	684
263.366	694
263.751	686.4
264.136	677.8
264.521	677.8
264.906	684.2
265.291	689.4
265.676	689.6
266.061	690.6
266.446	703.4
266.831	685.4
267.217	700.8
267.602	682.2
267.987	687.2
268.373	683.2
268.759	694.6
269.144	690.2
269.53	675.4
269.916	673
270.302	681.8
270.688	684.8
271.074	682.2
271.46	694.8
271.846	719.4
272.232	689.6
272.618	676
273.004	684.2
273.391	693
273.777	702.2
274.164	679.6
274.55	697.2
274.937	689.8
275.324	676.2
275.71	687.4
276.097	684
276.484	667.4
276.871	689.4
277.258	693.6
277.645	674.2
278.032	684.6
278.419	675.6
278.807	686.6
279.194	681.8
279.581	677.6
279.969	702.6
280.356	693.4
280.744	679.4
281.131	714.2
281.519	684.2
281.907	673.2
282.295	679.4
282.682	696.2
283.07	689.4
283.458	690
283.846	697.8
284.235	695.6
284.623	687.2
285.011	667
285.399	688.6
285.788	690.6
286.176	677.6
286.565	703.2
286.953	676.6
287.342	675.8
287.731	675.2
288.119	670.4
288.508	677.8
288.897	691.4
289.286	673.8
289.675	691.2
290.064	695.4
290.453	686.4
290.821	683.2
291.21	692
291.599	682.4
291.989	683.2
292.378	691
292.768	705.8
293.157	694.2
293.547	693.8
293.936	680.4
294.326	674.8
294.716	685.8
295.106	686.8
295.496	693.8
295.886	689
296.276	678.6
296.666	675
297.056	677.4
297.446	663.2
297.836	711.8
298.227	680.4
298.617	689
299.008	697.6
299.398	692
299.789	670.6
300.179	696.8
300.57	701
300.961	676.6
301.352	676.8
301.742	688
302.133	688.6
302.524	679.8
302.915	679.2
303.307	672
303.698	684.2
304.089	687.2
304.48	681.2
304.872	684.2
305.263	682
305.655	677.6
306.046	692.8
306.438	685
306.829	676.8
307.221	690.4
307.613	687.8
308.005	700.6
308.397	699.2
308.789	705
309.181	716.6
309.573	701.8
309.965	702.8
310.357	682.6
310.749	700.4
311.142	683.8
311.534	681.4
311.926	700.2
312.319	685.4
312.711	673.6
313.104	700
313.497	683.2
313.889	725
314.282	705.2
314.675	718.2
315.068	693.6
315.461	703.6
315.854	718
316.247	700.6
316.64	694.6
317.033	694.8
317.405	704.8
317.798	683.2
318.192	694.6
318.585	684
318.979	684.8
319.372	680
319.766	685.2
320.16	697
320.553	703.8
320.947	709.4
321.341	679.2
321.735	687
322.129	669.2
322.523	711
322.917	668.2
323.311	704.8
323.705	696.4
324.099	686.4
324.494	707.2
324.888	695.4
325.282	684.8
325.677	704
326.071	697.6
326.466	704.6
326.861	693.4
327.255	699.4
327.65	697.6
328.045	706.4
328.44	703.2
328.835	687.4
329.23	678
329.625	714.2
330.02	674.8
330.415	716.2
330.81	683
331.206	690.6
331.601	683.6
331.996	695.8
332.37	705.4
332.766	686.8
333.161	707.4
333.557	690
333.953	682
334.348	1182.6
334.744	688.4
335.14	682.6
335.536	690
335.932	709.4
336.328	682.8
336.724	702.8
337.12	681.6
337.516	689
337.913	695.2
338.309	698
338.705	690.2
339.102	699.4
339.498	692.6
339.895	706
340.291	685.6
340.688	692.8
341.085	673.6
341.481	687
341.878	687.4
342.275	714.4
342.672	673
343.069	678
343.466	666
343.842	695.2
344.239	681.6
344.636	684.8
345.033	673.8
345.431	676.4
345.828	681.8
346.225	683.8
346.623	729.4
347.02	688.8
347.418	691
347.816	697.6
348.213	669.6
348.611	684.2
349.009	673.2
349.407	694.8
349.805	672.4
350.203	662.6
350.601	692.2
350.999	677
351.397	770.6
351.795	679.4
352.193	693.6
352.57	690.8
352.969	696.6
353.367	679
353.766	677.8
354.164	677.4
354.563	689.6
354.961	674
355.36	674.8
355.759	675.4
356.158	676.2
356.557	678
356.956	670.8
357.355	668.4
357.754	684.8
358.153	681
358.552	708.2
358.951	673.6
359.35	693.6
359.75	671
360.149	674.2
360.527	672.4
360.926	670.4
361.326	675.6
361.726	684.2
362.125	664.2
362.525	687.4
362.925	680.2
363.325	675.6
363.724	680.6
364.124	675.2
364.524	667.6
364.924	676.2
365.324	688
365.725	662.2
366.125	689.6
366.525	678.4
366.904	674
367.304	666
367.705	707
368.105	696
368.506	676.8
368.906	678
369.307	671.4
369.708	681.2
370.108	661.8
370.509	694.2
370.91	677.4
371.311	682.4
371.712	682.2
372.113	680.6
372.514	665.6
372.894	670.6
373.295	674.2
373.696	688
374.097	679.4
374.499	707.8
374.9	680
375.301	672.6
375.703	677.6
376.105	665.6
376.506	682.4
376.908	677.2
377.309	678.6
377.711	680
378.113	670.8
378.493	672.6
378.895	669.2
379.297	691.8
379.699	669.2
380.102	679
380.504	679
380.906	665
381.308	700.8
381.71	676
382.113	689.4
382.515	660
382.918	688.6
383.299	680
383.701	686.4
384.104	678.2
384.507	652.8
384.909	683
385.312	663.6
385.715	668
386.118	673.4
386.521	672.6
386.924	692
387.327	668.4
387.709	668
388.112	656.6
388.515	677.6
388.918	667.6
389.322	683.4
389.725	672.6
390.129	698.6
390.532	685.8
390.936	668.6
391.339	673
391.743	683.2
392.125	669
392.529	683
392.933	689.8
393.337	682.8
393.74	680
394.144	677.4
394.548	669.6
394.953	676.4
395.357	677.8
395.761	670.6
396.144	679
396.548	670
396.952	675.2
397.357	681.8
397.761	672
398.166	681.6
398.57	683
398.975	664.2
399.379	676.2
399.763	739.8
400.168	671.4
400.572	673.6
400.977	668.2
401.382	697.4
401.787	679.8
402.192	687.6
402.597	705
403.002	659.4
403.386	689.4
403.791	697.4
404.197	665.4
404.602	670.6
405.007	686.2
405.413	676.4
405.818	673
406.224	663.4
406.608	670.8
407.014	667.6
407.42	691.6
407.825	667.2
408.231	680.2
408.637	677
409.043	696.4
409.449	664.2
409.834	664.2
410.24	666.2
410.646	683.8
411.052	685
411.458	675.8
411.865	681
412.271	688.4
412.677	684
413.062	678
413.469	659.6
413.875	710.4
414.282	689.4
414.689	679.8
415.095	697.8
415.502	674.4
415.888	678.4
416.294	666.8
416.701	724.8
417.108	673.2
417.515	693.6
417.923	675.6
418.33	698
418.715	685.8
419.123	675.6
419.53	680
419.937	689.4
420.345	695.6
420.752	675.2
421.16	692.4
421.546	676.2
421.953	685.2
422.361	671
422.769	681.8
423.177	671
423.585	700.2
423.992	696.6
424.379	694.4
424.787	696.8
425.195	706.4
425.603	672.6
426.011	692.2
426.419	694.8
426.806	675.4
427.214	687.2
427.623	694.4
428.031	693.2
428.44	685.8
428.848	700.8
429.235	693.2
429.644	684.4
430.053	684.8
430.461	689
430.87	708.6
431.279	700.4
431.666	678.6
432.075	683.4
432.484	689.4
432.893	680.8
433.302	703.8
433.711	733.6
434.099	680.4
434.508	671
434.918	662.6
435.327	694
435.737	688.8
436.125	679.6
436.534	692.2
436.944	686.2
437.353	688.2
437.763	709.8
438.173	676
438.561	702.8
438.971	673.6
439.381	688.6
439.791	702.4
440.201	681.6
440.589	701.6
440.999	703
441.409	704.4
441.819	681.8
442.23	712.8
442.619	714.4
443.029	695
443.439	711.6
443.85	730.4
444.26	741.8
444.649	725.8
445.06	713.8
445.471	711.8
445.881	720.4
446.292	743
446.682	740.2
447.092	706.8
447.503	784.8
447.914	722.8
448.325	725.4
448.715	724.6
449.126	734.6
449.537	722
449.948	739
450.338	733.4
450.75	733
451.161	737
451.572	740.6
451.984	726.4
452.374	710.4
452.786	728.4
453.197	739.6
453.609	745.8
453.999	726
454.411	734.2
454.823	744.8
455.235	740.8
455.647	733.6
456.037	740.6
456.449	719.4
456.862	747.4
457.274	742.2
457.665	736.4
458.077	747.6
458.489	787.8
458.902	741.8
459.293	757
459.705	741
460.118	744.8
460.53	759
460.921	752.8
461.334	761.2
461.747	749.8
462.16	757
462.551	766.4
462.964	758.2
463.377	738.4
463.79	755.6
464.182	771
464.595	744.4
465.008	759.2
465.421	758.6
465.813	746.8
466.226	767.4
466.64	749.6
467.053	808.6
467.445	760.8
467.859	781
468.272	761.4
468.686	777.2
469.078	759.4
469.492	750.4
469.906	768.4
470.298	773.6
470.712	759
471.126	828.8
471.54	746.4
471.933	763.2
472.347	766.8
472.761	756
473.175	756.2
473.568	765.2
473.982	759.4
474.397	761.4
474.79	765.4
475.204	768.4
475.619	766.8
476.033	757.6
476.426	764.8
476.841	762.6
477.256	790.4
477.649	765
478.064	764
478.479	761.8
478.872	755
479.287	738.8
479.702	751.4
480.118	762.8
480.511	761.4
480.927	764
481.342	758.8
481.736	771.4
482.151	753.8
482.566	768.2
482.96	766.4
483.376	778.2
483.792	757
484.186	771.6
484.602	757.2
485.017	762.2
485.412	759
485.827	761.8
486.243	767
486.638	790
487.054	773.6
487.47	788
487.865	757.8
488.281	766.4
488.697	754.6
489.092	766.2
489.508	758
489.925	780.8
490.32	758.2
490.736	766.2
491.153	762.2
491.548	769.4
491.964	768.2
492.381	747.8
492.776	762.4
493.193	751.8
493.61	763.6
494.006	757.8
494.422	754.2
494.84	754.8
495.235	760
495.652	749.6
496.069	757.2
496.465	730.4
496.883	758.6
497.3	790.8
497.696	749.8
498.113	765
498.509	744.4
498.927	735
499.344	732.4
499.741	745
500.158	754
500.576	765.8
500.973	749.4
501.39	739
501.787	737.4
502.205	752.2
502.623	735
503.02	735.4
503.438	729.8
503.856	731.8
504.253	749.4
504.671	736.8
505.068	736.8
505.486	740.4
505.905	761.8
506.302	740.4
506.72	747
507.118	725.4
507.536	741
507.955	752.2
508.352	743.8
508.771	735.8
509.169	738
509.587	727.6
510.006	735
510.404	723.6
510.823	716
511.221	728.6
511.64	722.2
512.038	744.8
512.457	729.6
512.877	724.6
513.275	720.2
513.694	714
514.092	715.6
514.512	718.4
514.91	725.2
515.33	727.6
515.749	722.4
516.148	724
516.568	728.6
516.966	722.4
517.386	711.4
517.785	718.4
518.205	713.4
518.603	721.8
519.024	705.8
519.444	721.8
519.843	730.2
520.263	737.6
520.662	721.8
521.082	718.8
521.481	719.4
521.902	712.2
522.301	720.8
522.722	730.8
523.121	723.2
523.542	707.4
523.963	723.2
524.362	720.6
524.783	724.2
525.183	711.8
525.604	715.4
526.003	705.2
526.425	706.4
526.824	710.2
527.246	723.6
527.646	720.8
528.067	714.8
528.467	710.2
528.888	706.2
529.289	700.8
529.71	691.4
530.11	701.8
530.532	694.6
530.932	695.6
531.354	702.2
531.755	741
532.176	706.8
532.577	700.4
532.999	706.4
533.4	698.8
533.822	713.8
534.223	697.4
534.645	698.2
535.046	699.4
535.468	706.6
535.869	719.4
536.292	694
536.693	743.8
537.115	701.4
537.516	696
537.939	698.2
538.34	715.2
538.742	725.6
539.165	704.8
539.566	702.6
539.989	692
540.391	697
540.814	695
541.216	704.8
541.639	694.6
542.041	715
542.464	688.6
542.866	692.2
543.268	698.4
543.691	688.4
544.093	703.4
544.517	726
544.919	689.8
545.343	723.6
545.745	680.6
546.147	693
546.571	685.4
546.974	680.2
547.398	694.2
547.8	713
548.224	680.4
548.627	683
549.03	695
549.454	685.6
549.857	675.6
550.281	686.2
550.684	691.8
551.087	700.2
551.512	699
551.915	690
552.34	688
552.743	692.8
553.146	693
553.571	693.4
553.975	705.4
554.399	677.6
554.803	741.4
555.207	682.4
555.632	691
556.036	695
556.461	675.8
556.865	679
557.268	678.6
557.694	686.8
558.098	690.2
558.502	683.2
558.927	668.4
559.332	678.6
559.736	683.8
560.162	692.6
560.566	681.2
560.992	683
561.396	688.2
561.801	672.8
562.227	691.2
562.631	676.2
563.036	676.2
563.462	689
563.867	673.2
564.272	668.4
564.698	680.6
565.103	672
565.508	703.8
565.935	684.2
566.34	683.4
566.745	696.6
567.172	673.8
567.577	703.4
567.982	689.2
568.409	679
568.815	671.6
569.22	686.8
569.626	680.2
570.053	668.6
570.459	681.2
570.865	688.4
571.292	686.8
571.698	683.4
572.104	664.6
572.531	673
572.937	685.8
573.343	672.2
573.75	675.8
574.177	676
574.583	681.2
574.99	675
575.396	674.6
575.824	670.4
576.231	680
576.637	669.8
577.065	707.8
577.472	669.4
577.879	668.6
578.286	685.2
578.714	662.8
579.121	684.4
579.528	682.4
579.935	680.6
580.364	675
580.771	659.2
581.178	666
581.585	673.4
582.014	668.4
582.421	666
582.829	660.4
583.236	687.4
583.644	662.2
584.073	673
584.481	671.4
584.889	669.2
585.296	675.8
585.726	675.6
586.134	669.4
586.542	670.6
586.95	689.8
587.358	657.2
587.787	680.8
588.196	656
588.604	660
589.012	667.2
589.421	662
589.851	659
590.259	675.6
590.668	668.8
591.076	715.8
591.485	655.4
591.894	666.8
592.324	681.6
592.733	684.6
593.142	649.8
593.551	665
593.96	670.6
594.369	655.6
594.8	664.8
595.209	660
595.618	649.6
596.028	664
596.437	651.8
596.847	670.6
597.256	679.4
597.687	672.6
598.097	669.4
598.507	651.8
598.917	669.2
599.327	674.4
599.736	661.6
600.146	678.2
600.556	663.8
600.988	679.4
601.398	668.4
601.808	680
602.219	649.2
602.629	666.6
603.039	662.4
603.45	693.6
603.86	663.8
604.271	686.2
604.703	669.2
605.114	671.6
605.525	660.6
605.935	669.4
606.346	685
606.757	674.8
607.168	671.6
607.579	651.6
607.99	682
608.402	667.4
608.813	670.8
609.224	657.8
609.636	642.8
610.047	664.4
610.48	673.8
610.892	667.2
611.303	670.6
611.715	663.4
612.127	654.2
612.539	665.6
612.95	671.2
613.362	652.4
613.774	652.6
614.186	657.4
614.599	665.2
615.011	672.4
615.423	668.8
615.835	656.8
616.248	650.6
616.66	665
617.073	654.6
617.485	657.2
617.898	668.4
618.311	660.2
618.723	659.8
619.136	692
619.549	676.2
619.962	688.8
620.375	662
620.788	671.8
621.201	657.8
621.614	678.2
622.028	651.4
622.441	667
622.854	672
623.268	654.6
623.681	677.2
624.095	660
624.509	673.6
624.922	671.2
625.336	650.6
625.728	662
626.142	674.2
626.556	677.4
626.97	670
627.384	666
627.799	662.4
628.213	669
628.627	668.4
629.041	660.4
629.456	664.8
629.87	669
630.285	677.6
630.699	670.8
631.093	656.2
631.507	667.2
631.922	671.2
632.337	673.6
632.752	653
633.167	665.2
633.582	647.6
633.997	651.6
634.412	649.6
634.806	666.6
635.221	649.6
635.637	667.4
636.052	644.4
636.468	659.2
636.883	679.2
637.299	658.8
637.715	646.2
638.109	658.2
638.525	647.8
638.941	670.6
639.357	663.4
639.773	672
640.189	649.2
640.584	648.4
641	666.4
641.416	638
641.832	656.4
642.249	663.8
642.665	663
643.06	670.2
643.477	671.2
643.894	650.4
644.31	661.8
644.727	658.6
645.123	647
645.54	654.8
645.957	672.8
646.374	672.2
646.77	656.6
647.187	691.4
647.604	659.6
648.021	647.6
648.439	649.4
648.835	653.6
649.252	656.8
649.67	662.4
650.088	662.2
650.484	666
650.902	666.2
651.32	660.8
651.738	650.2
652.134	661
652.552	677.2
652.971	662.6
653.389	654.8
653.786	672.4
654.204	678.8
654.622	643.4
655.019	660.6
655.438	674.2
655.857	662.4
656.275	668.6
656.673	656.8
657.091	746.2
657.51	650.8
657.908	667.8
658.327	671.8
658.746	644.4
659.144	661.4
659.563	670.8
659.982	661
660.38	645.2
660.8	658.2
661.219	669.4
661.617	661.4
662.037	654
662.457	678.6
662.855	636.4
663.275	694.4
663.695	653.8
664.094	658
664.514	664.8
664.934	649.8
665.333	665
665.753	657.2
666.152	651.2
666.572	648.4
666.993	669.2
667.392	653
667.812	657.4
668.212	651
668.632	667
669.053	658.8
669.453	658.2
669.874	660.6
670.273	660.6
670.694	644.4
671.116	679
671.515	668
671.937	663.2
672.337	654.2
672.758	647
673.158	659.2
673.58	647.2
673.98	655.6
674.402	671.6
674.824	658.8
675.224	649.2
675.646	650
676.047	655
676.469	658
676.869	668.2
677.292	663.4
677.693	654.2
678.115	654.8
678.516	665.4
678.939	656.2
679.34	658.4
679.762	673.6
680.164	666.6
680.586	651.2
680.988	659.6
681.411	684
681.812	649
682.236	649.8
682.637	654.2
683.061	644.8
683.462	662.2
683.864	654.8
684.288	654.2
684.69	644
685.114	662.6
685.516	669
685.94	647
686.342	658.2
686.766	651.4
687.168	652.4
687.571	677.4
687.995	658.2
688.398	646.8
688.822	661.2
689.225	670.4
689.628	677
690.052	656.4
690.456	658.8
690.88	652.4
691.284	642
691.687	662.8
692.112	646.8
692.515	649.8
692.919	655
693.344	653.6
693.747	652.2
694.173	651.4
694.577	668.4
694.98	653.6
695.406	654
695.81	662
696.214	662.4
696.64	669.2
697.044	664.4
697.448	660.2
697.874	648.4
698.279	658.8
698.684	649.6
699.11	650.2
699.514	650.8
699.919	653.8
700.324	642.2
700.75	654
701.156	664
701.561	672.8
701.987	672.4
702.393	670.4
702.798	677.6
703.203	659.6
703.63	653.6
704.036	652.2
704.442	655
704.847	649.4
705.274	658.2
705.68	660
706.086	666.8
706.492	652.6
706.92	660
707.326	671.4
707.732	651
708.139	640.8
708.545	655
708.973	655.4
709.38	659.2
709.786	649.4
710.193	674.8
710.6	652.2
711.028	641.4
711.435	652.4
711.842	655.4
712.249	647
712.656	657.4
713.064	660.8
713.492	651.2
713.9	654.6
714.307	650.6
714.715	648.2
715.123	656.8
715.53	656.6
715.938	659.6
716.367	658.8
716.775	650.4
717.184	643
717.592	649.4
718	659.6
718.408	683.8
718.816	706.2
719.225	653
719.633	652
720.042	649.2
720.472	642.8
720.881	671.8
721.29	660.2
721.699	642
722.108	659.6
722.517	651
722.926	645.4
723.335	661.2
723.744	651.8
724.154	649.6
724.563	664.2
724.973	665.4
725.382	653.2
725.792	650.8
726.202	646.6
726.612	675.6
727.022	651.6
727.432	650.4
779.813	664.4
780.223	710.4
780.634	653.4
781.044	649
781.454	651.8
781.865	667.6
782.276	648.2
782.686	665.8
783.097	652.6
783.508	652.2
783.919	651.4
784.33	663.8
784.741	663.6
785.152	649.4
785.563	641.4
785.974	653
786.386	670.4
786.776	655.8
787.188	658.2
787.599	637.8
788.011	660.6
788.423	659.6
788.835	655.4
789.247	640
789.659	646.4
790.071	651
790.483	700
790.874	648.6
791.286	660.8
791.699	646.6
792.111	664.4
792.524	657.6
792.937	644.2
793.349	641.6
793.741	648.6
794.154	645.2
794.567	674.8
794.98	655.2
795.393	637.8
795.785	671.8
796.198	644.4
796.612	658.6
797.026	648.4
797.439	634.4
797.831	651.4
798.245	643.4
798.659	646.6
799.073	650.2
799.487	652
799.88	651
800.294	658.8
800.708	655.6
801.123	656
801.516	678.6
801.93	637.4
802.345	633.6
802.76	654
803.153	671
803.568	675.2
803.983	664.2
804.377	649.4
804.792	638
805.207	639.2
805.601	655.8
806.016	692
806.432	648.8
806.826	691.2
807.242	665.6
807.658	660.4
808.052	654
808.468	658.4
808.884	645.8
809.279	650.8
809.695	668
810.111	674.6
810.506	664
810.922	675.4
811.339	647
811.734	662.2
812.151	653
812.546	646.4
812.963	645.4
813.38	661.6
813.776	653.4
814.193	681.6
814.589	643.2
815.006	648.6
815.402	646.6
815.82	646.2
816.237	649.2
816.633	654.4
817.051	649.6
817.448	641.4
817.866	628.4
818.262	670.2
818.68	644.4
819.077	643
819.495	645.6
819.892	696.8
820.311	642.6
820.708	649.4
821.127	643.2
821.524	665
821.943	652.4
822.34	678.6
822.759	652.8
823.157	651.6
823.576	666.2
823.974	661.4
824.393	789.2
824.791	649
825.189	642.6
825.609	643.6
826.007	650.8
826.427	635.6
826.826	644
827.246	648.4
827.644	631.2
828.043	658.6
828.463	639.8
828.862	657.8
829.261	660
829.682	635
830.081	663.6
830.502	638.8
830.901	656.6
831.301	641
831.722	641.2
832.121	644.4
832.521	646.6
832.943	644.6
833.342	658
833.742	640
834.164	646
834.564	638.6
834.965	637
835.386	642.2
835.787	646.2
836.188	640.8
836.588	657.8
837.01	644.8
837.411	632.8
837.812	657.2
838.213	654.8
838.636	647
839.037	750.6
839.438	649.2
839.84	664.6
840.263	652.4
840.664	650
841.066	649
841.468	645.2
841.891	646.6
842.293	661.6
842.695	653.4
843.098	661.8
843.5	651
843.902	659.2
844.326	653.8
844.729	657
845.131	656.6
845.534	648.6
845.937	672.8
846.34	672.6
846.764	648.6
847.167	656.2
847.571	641.6
847.974	652.2
848.377	646.2
848.781	697.8
849.184	669.6
849.588	647.8
849.992	643
850.396	654.8
850.821	680.4
851.225	656.2
851.63	654
852.034	672.4
852.438	657.2
852.843	804.8
853.247	648.6
853.652	651.8
854.057	676
854.462	658.8
854.867	657.2
855.272	689
855.677	653.6
856.082	654.4
856.487	636.2
856.893	661.8
857.298	639.2
857.704	646.4
858.11	644.8
858.516	663
858.922	652.2
859.328	665.2
859.734	662.2
860.14	659.6
860.525	656.6
860.931	648.4
861.338	650.4
861.745	641.2
862.151	665.2
862.558	648.2
862.965	646
863.372	644.8
863.779	657.6
864.186	675
864.572	649.8
864.98	676.4
865.387	685.2
865.795	642
866.203	659.6
866.61	644
867.018	662.6
867.405	652.6
867.813	640.6
868.221	648
868.63	640
869.038	666
869.425	698.2
869.834	661
870.243	636.6
870.652	642
871.039	643.8
871.448	644
871.857	651.4
872.266	660.6
872.654	646.8
873.064	636.4
873.473	660
873.883	636.6
874.271	638.4
874.681	659.6
875.091	634.2
875.48	659
875.89	670.6
876.3	653.4
876.689	634.8
877.1	646.2
877.51	653
877.9	667.8
878.31	648
878.721	683.2
879.111	649.6
879.522	655.2
879.933	643.4
880.323	640
880.734	640.4
881.125	645.8
881.536	644.8
881.948	639.6
882.338	654.6
882.75	654.4
883.141	643.8
883.553	651.6
883.944	681.6
884.356	666.8
884.769	648.6
885.16	647.6
885.573	655.2
885.964	644.8
886.377	653.6
886.768	637.6
887.181	653.2
887.573	639.8
887.987	665.2
888.378	664.4
888.792	654.2
889.184	709.4
889.598	637.6
889.99	651.8
890.383	640.8
890.797	633.2
891.19	658.6
891.604	633.8
891.997	638
892.411	643
892.805	639
893.198	641.4
893.613	630.2
894.006	644
894.421	638.8
894.815	647.2
895.209	649.6
895.624	690
896.018	671.8
896.412	648.2
896.828	644.4
897.222	654.4
897.617	653.8
898.033	671.4
898.427	646.8
898.822	653.4
899.239	634.8
899.634	633.2
900.029	675.2
900.424	644.4
900.841	635.4
901.236	656.8
901.632	649.8
902.027	714.2
902.445	655.6
902.841	648.8
903.237	649
903.633	666.8
904.05	659.8
904.447	645
904.843	662.6
905.24	650.4
905.636	640
906.033	653.2
906.451	659.8
906.848	632.2
907.246	638.8
907.643	652.6
908.04	651.6
908.438	672.4
908.835	654.8
909.254	649.8
909.652	653
910.05	649.2
910.448	635.8
910.846	647.2
911.244	640.4
911.643	653
912.041	644
912.44	668.2
912.839	646.6
913.237	640.2
913.636	638.2
914.035	656.4
914.434	640.6
914.834	660
915.233	664.2
915.633	641.6
916.032	636.8
916.432	634.4
916.832	662.2
917.232	642.8
917.632	631.8
918.032	659.2
918.432	653.4
918.833	637
919.233	640.8
919.634	631.8
920.035	647.8
920.436	637.2
920.837	646.2
921.238	653.4
921.639	643.4
922.019	640.8
922.42	650.6
922.822	659.6
923.224	642
923.625	638.4
924.027	644.8
924.429	681
924.81	647.8
925.212	659
925.615	656.2
926.017	652.6
926.42	670.4
926.801	650.2
927.204	645.8
927.607	655
928.01	657
928.413	648.6
928.795	630.8
929.199	636
929.602	636.2
930.006	644.8
930.388	634.8
930.792	632.6
931.196	641.6
931.579	680.6
931.983	630.8
932.388	699.4
932.771	641.4
933.176	631.2
933.58	649.6
933.964	655.6
934.369	637.6
934.774	636.2
935.158	646
935.563	649.6
935.947	648.6
936.353	654
936.759	644.8
937.143	651
937.549	647.8
937.934	657.4
938.34	664.4
938.746	646.8
939.131	641.2
939.538	643
939.923	650.4
940.33	637.6
940.716	647.2
941.123	643.4
941.508	656.6
941.916	662
942.302	655.4
942.709	628
943.096	635.8
943.503	649
943.89	647.2
944.298	635.8
944.685	678.8
945.072	645.2
945.48	660
945.867	647.2
946.276	637
946.663	668
947.051	658.8
947.46	667
947.848	646
948.257	639.8
948.645	645.4
949.033	640.8
949.443	637.8
949.831	692
950.22	645
950.63	647
951.018	679.6
951.407	645.2
951.796	640.6
952.207	646.6
952.596	659.2
952.985	638.6
953.375	702.8
953.786	652.6
954.176	628
954.566	663.4
954.956	637.8
955.367	642.8
955.758	669.4
956.148	639
956.539	653.6
956.929	642.2
957.341	640.8
957.732	642.4
958.123	657.6
958.515	634.2
958.906	655
959.297	646
959.689	651.6
960.102	641.6
960.494	645.6
960.886	638.2
961.278	651.4
961.67	664.4
962.062	686.4
962.455	644
962.847	642.6
963.24	650.8
963.633	643
964.026	636.2
964.419	658.2
964.812	665.6
965.206	642.4
965.599	659.6
965.993	642.6
966.386	648.2
966.78	652.8
967.174	648.4
967.569	644.8
967.963	642.8
968.357	642.6
968.752	636.4
969.146	637.6
969.541	636
969.936	642.8
970.331	655.4
970.705	641
971.1	646.4
971.496	655.4
971.892	632
972.287	642.4
972.683	648.4
973.079	632.4
973.454	658.6
973.85	650.2
974.247	646
974.643	673.8
975.04	642.2
975.415	643.2
975.812	629.6
976.209	644.2
976.607	638.4
976.982	647.4
977.38	665.8
977.778	643.6
978.175	644
978.552	643
978.95	657.2
979.348	649
979.725	698.8
980.123	642.6
980.522	641.6
980.899	638
981.298	632.2
981.697	645
982.075	647.8
982.474	645
982.852	644.8
983.251	650
983.651	642.8
984.029	651
984.429	640
984.808	637.4
985.208	645
985.609	640.8
985.987	638.2
986.388	635.8
986.768	644.6
987.168	643
987.548	648.8
987.949	658.6
988.329	648.2
988.731	628.6
989.111	646.2
989.491	636.6
989.893	643.2
990.273	656.4
990.676	640
991.057	631
991.459	639.6
991.84	646
992.221	627.4
992.624	662.4
993.006	648.6
993.388	647.4
993.791	654
994.173	653
994.576	685
994.959	638.8
995.341	638.8
995.724	642.2
996.128	641.4
996.511	642
996.894	639.8
997.298	640.4
997.681	650.8
998.065	647.8
998.448	648.4
998.854	661.6
999.237	638.2
999.621	659.2
1000.01	668.6
1000.39	645.8
1000.8	645.6
1001.18	652.4
1001.56	652.4
1001.95	655.4
1002.33	644.2
1002.72	642.4
1003.13	649.4
1003.51	644
1003.9	640.4
1004.28	662.6
1004.67	635.6
1005.06	647.2
1005.44	677.8
1005.83	634.6
1006.21	640.4
1006.6	634.8
1006.99	659.8
1007.37	651.6
1007.76	646.8
1060.12	640.8
1060.51	640.2
1060.89	644.6
1061.28	653.8
1061.67	660.2
1062.06	652
1062.45	654.6
1062.83	647.8
1063.22	655.6
1063.61	683.6
1064	653.4
1064.39	646.6
1064.78	632.6
1065.14	653.8
1065.53	642.6
1065.92	650.4
1066.31	631.4
1066.7	647.2
1067.09	657.6
1067.46	650.4
1067.85	644.4
1068.24	637.8
1068.63	657.6
1069.02	643.4
1069.39	644.8
1069.78	640.8
1070.17	639.2
1070.57	638.8
1070.93	642.8
1071.33	634.4
1071.72	651.2
1072.11	651.4
1072.48	640.4
1072.87	640
1073.26	648.2
1073.64	639.6
1074.03	636
1074.4	638.4
1074.79	644.4
1075.19	650.2
1075.56	650.8
1075.95	649.8
1076.34	648
1076.72	654.8
1077.11	645.2
1077.48	661.6
1077.88	643.6
1078.25	646
1078.64	653
1079.02	637.2
1079.41	647.8
1079.78	645.2
1080.18	636.4
1080.55	721.2
1080.95	635
1081.32	645.6
1081.72	646
1082.09	641.8
1082.49	634.4
1082.86	640.4
1083.24	633.8
1083.63	639
1084.01	635.8
1084.38	657
1084.78	640.6
1085.16	647.8
1085.55	658.6
1085.93	659.4
1086.31	645.8
1086.7	681
1087.08	643.8
1087.46	639
1087.83	633
1088.23	648.8
1088.61	638.6
1088.99	643.4
1089.36	633.6
1089.76	643.6
1090.14	641.2
1090.52	636.6
1090.9	636.8
1091.27	644.8
1091.67	672.4
1092.05	653.6
1092.43	632.6
1092.81	649.6
1093.19	653.6
1093.57	634.8
1093.95	641.6
1094.35	651.6
1094.73	654
1095.11	644
1095.49	633
1095.87	636
1096.25	654.6
1096.63	652.8
1097.01	634.2
1097.39	653.6
1097.77	641.2
1098.15	643
1098.53	638.2
1098.91	652.6
1099.29	632.8
1099.68	665.8
1100.06	654
1100.44	644.6
1100.82	644.8
1101.18	654.4
1101.56	643.2
1101.95	641.4
1102.33	635.6
1102.71	656
1103.1	648.6
1103.48	633.4
1103.86	636.8
1104.22	658
1104.61	640.6
1104.99	641
1105.38	640.6
1105.76	641
1106.12	644
1106.51	690.8
1106.89	647.8
1107.26	646.2
1107.64	656.4
1108.03	642.6
1108.41	641.8
1108.78	644.6
1109.16	649.4
1109.55	656.2
1109.91	630
1110.3	635
1110.69	656.4
1111.05	641.4
1111.44	643.6
1111.8	645.4
1112.19	651.8
1112.58	647.8
1112.94	638.2
1113.33	636.6
1113.7	643
1114.09	632.8
1114.45	634.6
1114.84	639
1115.21	653.8
1115.6	636.4
1115.96	648
1116.35	647.2
1116.72	632.8
1117.11	651.2
1117.48	644.8
1117.85	639
1118.24	650.6
1118.6	644.6
1118.99	637
1119.36	637.8
1119.73	641.4
1120.12	634.2
1120.49	622.2
1120.86	657.6
1121.25	644.2
1121.62	628.8
1121.99	633.8
1122.38	649
1122.76	639
1123.13	641.4
1123.5	649.2
1123.89	654.8
1124.26	632.8
1124.63	633
1125	644
1125.4	615.6
1125.77	627
1126.14	623.2
1126.51	642.4
1126.88	642.6
1127.26	641.8
1127.63	628.4
1128.02	629.6
1128.4	632.6
1128.77	638.6
1129.14	633.2
1129.52	632
1129.89	643.2
1130.26	639.4
1130.64	629.8
1131.01	641
