#lambda/nm	C1
208.295	534.6
208.67	484.8
209.045	453.6
209.419	450.8
209.794	679.2
210.169	654.8
210.544	812.4
210.919	695.4
211.295	675.2
211.67	690.4
212.045	677.6
212.421	679.4
212.796	721.6
213.172	674.2
213.547	670
213.923	677.2
214.299	684.2
214.675	689
215.051	695.6
215.427	691.8
215.803	700.8
216.179	690.6
216.555	682
216.932	681.2
217.308	676.8
217.684	681
218.061	688.2
218.438	688
218.814	679
219.191	688.8
219.568	678.4
219.945	677.8
220.322	689.2
220.699	691.8
221.076	684
221.453	691.8
221.83	674.8
222.208	669.2
222.585	680.8
222.962	688.6
223.34	683.8
223.717	679.8
224.095	680.8
224.473	672.8
224.851	677.4
225.229	666
225.607	704.8
225.985	674.2
226.363	687
226.741	687.6
227.119	682
227.497	691.4
227.876	665.2
228.254	684.4
228.633	684.6
229.011	681.6
229.39	688.6
229.769	685.2
230.148	694.6
230.527	698.2
230.905	684.2
231.284	685.6
231.664	674.6
232.043	691.6
232.422	690.4
232.801	683.4
233.181	696.2
233.56	675
233.94	679.8
234.319	667.6
234.699	680.4
235.079	730.2
235.458	718.4
235.838	696
236.218	678.6
236.598	672.6
236.978	672.2
237.358	678.6
237.738	685.6
238.119	688.2
238.499	671.4
238.88	682.4
239.26	695.8
239.641	673.2
240.021	680.2
240.402	680
240.783	677.4
241.163	682.2
241.544	681.6
241.925	688.2
242.306	696.6
242.687	679.6
243.069	689.4
243.45	692.2
243.831	681.6
244.212	686
244.594	732
244.975	696.4
245.357	691.6
245.739	675.4
246.12	688.8
246.502	699
246.884	690.8
247.266	685.6
247.648	687
248.03	713.4
248.412	687.8
248.794	690.4
249.176	688.6
249.559	691.4
249.941	667.8
250.323	680.6
250.706	683.2
251.089	678.4
251.471	681.2
251.854	679.4
252.237	683.6
252.62	688.4
253.002	684.8
253.385	683.2
253.769	695.2
254.152	676.8
254.535	695.2
254.918	662.8
255.301	680.2
255.685	682.2
256.068	668.6
256.452	709
256.835	691.6
257.219	685.8
257.603	697.8
257.986	677
258.37	694.2
258.754	672
259.138	687.4
259.522	697
259.906	686.2
260.29	695.8
260.675	691.4
261.059	690.8
261.443	672.8
261.828	696
262.212	689.6
262.597	665.8
262.981	674.8
263.366	697.4
263.751	691.2
264.136	691.2
264.521	674.4
264.906	676.8
265.291	702.6
265.676	675.6
266.061	691.2
266.446	701
266.831	697
267.217	707.8
267.602	687.8
267.987	686.6
268.373	679
268.759	700.2
269.144	690.6
269.53	684.4
269.916	678.8
270.302	678.2
270.688	676.6
271.074	685.4
271.46	689.4
271.846	726.2
272.232	682
272.618	670.4
273.004	678.8
273.391	692.6
273.777	701
274.164	681.6
274.55	696.6
274.937	683.6
275.324	682.4
275.71	698.6
276.097	686.2
276.484	671.2
276.871	682.8
277.258	688.4
277.645	663
278.032	686.2
278.419	678
278.807	684
279.194	667
279.581	672.8
279.969	689.4
280.356	681.8
280.744	673.2
281.131	707.6
281.519	696.8
281.907	679.6
282.295	683.2
282.682	694.4
283.07	680.4
283.458	688
283.846	694.6
284.235	704.8
284.623	696.8
285.011	665
285.399	679.4
285.788	683.2
286.176	676.2
286.565	694.4
286.953	686.6
287.342	679.8
287.731	673.8
288.119	673.8
288.508	683.8
288.897	678.8
289.286	675.2
289.675	690.4
290.064	698.4
290.453	679.4
290.821	678.8
291.21	700.4
291.599	678.4
291.989	692.2
292.378	692.2
292.768	703
293.157	687
293.547	702.6
293.936	683.8
294.326	682.4
294.716	683.4
295.106	684.4
295.496	695.6
295.886	686.6
296.276	689.4
296.666	678.8
297.056	690.6
297.446	678.2
297.836	717.4
298.227	686.4
298.617	685.8
299.008	705.4
299.398	681.2
299.789	686.2
300.179	697.2
300.57	699.8
300.961	685
301.352	682.4
301.742	696.6
302.133	686.6
302.524	687
302.915	689
303.307	675.2
303.698	697.4
304.089	692
304.48	691.6
304.872	696.8
305.263	687.2
305.655	682.6
306.046	694.8
306.438	695.6
306.829	686.4
307.221	695.8
307.613	703.6
308.005	696
308.397	704.2
308.789	707.2
309.181	719.4
309.573	707.6
309.965	699.8
310.357	691.2
310.749	701
311.142	680.4
311.534	680.2
311.926	695.8
312.319	692.8
312.711	682.6
313.104	711.2
313.497	686
313.889	736
314.282	702.2
314.675	712
315.068	687.8
315.461	694.4
315.854	725.8
316.247	693.2
316.64	683
317.033	692.6
317.405	698
317.798	682.4
318.192	691.8
318.585	680.4
318.979	696.8
319.372	685.4
319.766	692.2
320.16	694.4
320.553	700.8
320.947	706.8
321.341	685.4
321.735	693.2
322.129	674.8
322.523	718.4
322.917	686.8
323.311	696.6
323.705	696.4
324.099	700.8
324.494	699.4
324.888	703
325.282	688.2
325.677	706
326.071	692
326.466	698.8
326.861	702.8
327.255	700.6
327.65	706.2
328.045	708.8
328.44	692.8
328.835	690
329.23	692.8
329.625	710
330.02	674.2
330.415	708.4
330.81	682.2
331.206	696.6
331.601	689.2
331.996	689.6
332.37	707.2
332.766	669.2
333.161	712.8
333.557	679.6
333.953	680.6
334.348	1030.8
334.744	690
335.14	682
335.536	685.6
335.932	699.4
336.328	692.6
336.724	703.4
337.12	696.6
337.516	698.6
337.913	688.6
338.309	703.6
338.705	690.4
339.102	691.8
339.498	681.2
339.895	698.2
340.291	683.2
340.688	702.8
341.085	679
341.481	686.6
341.878	682.6
342.275	706.4
342.672	667.8
343.069	679.6
343.466	675.4
343.842	700.2
344.239	682.8
344.636	686
345.033	671
345.431	684.6
345.828	683
346.225	684.2
346.623	726.6
347.02	698.2
347.418	700.8
347.816	706.2
348.213	677.8
348.611	692.8
349.009	683.6
349.407	702.4
349.805	671.6
350.203	674.6
350.601	697.4
350.999	680.4
351.397	733
351.795	689.8
352.193	693
352.57	691.4
352.969	696.6
353.367	671.4
353.766	679.6
354.164	682.8
354.563	691.6
354.961	688.2
355.36	676.8
355.759	680.8
356.158	682
356.557	676.2
356.956	673.4
357.355	669.4
357.754	678.2
358.153	691.8
358.552	712.6
358.951	678
359.35	693.4
359.75	676.6
360.149	669.8
360.527	665.2
360.926	673.6
361.326	691.6
361.726	683.6
362.125	678.8
362.525	692.8
362.925	672.6
363.325	685.6
363.724	691.4
364.124	664.6
364.524	677.2
364.924	680.2
365.324	698.2
365.725	666
366.125	689.8
366.525	682
366.904	681
367.304	662.6
367.705	701.8
368.105	688.8
368.506	686.8
368.906	680
369.307	687
369.708	688.2
370.108	660.6
370.509	689.2
370.91	671.4
371.311	679.4
371.712	686
372.113	679.8
372.514	663.4
372.894	673.2
373.295	665.4
373.696	691.4
374.097	687.4
374.499	709
374.9	677.8
375.301	666.8
375.703	687
376.105	674
376.506	686
376.908	685
377.309	679.8
377.711	683.6
378.113	667.2
378.493	674.4
378.895	673.4
379.297	689.8
379.699	664.4
380.102	683.8
380.504	686.2
380.906	675.2
381.308	708
381.71	677.4
382.113	683.2
382.515	681.6
382.918	680
383.299	674.2
383.701	687.4
384.104	675.6
384.507	651.2
384.909	672
385.312	658.2
385.715	659.2
386.118	674.2
386.521	665.6
386.924	684.8
387.327	674.4
387.709	658.8
388.112	660.8
388.515	673.2
388.918	676.2
389.322	679.2
389.725	671
390.129	707.8
390.532	681.4
390.936	672.6
391.339	672.4
391.743	675.6
392.125	668.2
392.529	686.4
392.933	691.4
393.337	680.8
393.74	670.6
394.144	669.6
394.548	667.6
394.953	665.4
395.357	682.4
395.761	673.6
396.144	667.4
396.548	674
396.952	682.2
397.357	677
397.761	674.4
398.166	673
398.57	675.4
398.975	665.6
399.379	681.4
399.763	733.2
400.168	685.4
400.572	673.6
400.977	677
401.382	699.6
401.787	697.2
402.192	701.8
402.597	693
403.002	665.4
403.386	699.4
403.791	702.4
404.197	678.8
404.602	685
405.007	675.8
405.413	677.6
405.818	675.4
406.224	669.6
406.608	674.2
407.014	663.6
407.42	706.2
407.825	674.4
408.231	688.8
408.637	682.6
409.043	691.4
409.449	679.4
409.834	662
410.24	682.6
410.646	693.4
411.052	682.4
411.458	683.2
411.865	690.8
412.271	680
412.677	686.4
413.062	678.2
413.469	670.2
413.875	710.8
414.282	698.4
414.689	691.2
415.095	688.2
415.502	669
415.888	691
416.294	661
416.701	724.8
417.108	673
417.515	682.6
417.923	677.2
418.33	701.2
418.715	690
419.123	681.2
419.53	681.4
419.937	692.4
420.345	702.2
420.752	672
421.16	697
421.546	679.6
421.953	689
422.361	664.4
422.769	682
423.177	671.2
423.585	708.6
423.992	702
424.379	699.8
424.787	696
425.195	701
425.603	685.8
426.011	694.8
426.419	688
426.806	685.2
427.214	691.2
427.623	699.4
428.031	700.2
428.44	686.6
428.848	701.6
429.235	695.8
429.644	692.2
430.053	684.2
430.461	700.4
430.87	717
431.279	695.2
431.666	675.6
432.075	691.6
432.484	688.8
432.893	681.8
433.302	700.8
433.711	744.6
434.099	697.4
434.508	690.2
434.918	675.6
435.327	691.6
435.737	689.8
436.125	687.4
436.534	700.2
436.944	687.8
437.353	693.4
437.763	715.4
438.173	681.4
438.561	705.6
438.971	677.4
439.381	696.6
439.791	704.6
440.201	679
440.589	712
440.999	719
441.409	705.6
441.819	689.2
442.23	709.2
442.619	714.2
443.029	711.2
443.439	711.6
443.85	725.8
444.26	724.8
444.649	725
445.06	711.4
445.471	711
445.881	721
446.292	734.8
446.682	750
447.092	705.4
447.503	776.8
447.914	722.2
448.325	714.4
448.715	723.8
449.126	708
449.537	723.4
449.948	726.2
450.338	733.6
450.75	737
451.161	732.2
451.572	737.4
451.984	721.4
452.374	719.2
452.786	725
453.197	732.6
453.609	731.2
453.999	716
454.411	729.2
454.823	742.4
455.235	732.8
455.647	725.6
456.037	734.4
456.449	715.6
456.862	730.4
457.274	733.4
457.665	722.6
458.077	740.4
458.489	768
458.902	728
459.293	733.8
459.705	734.2
460.118	723.6
460.53	740.4
460.921	739.6
461.334	736.2
461.747	734
462.16	748.2
462.551	754.2
462.964	743.6
463.377	718.2
463.79	735.8
464.182	746
464.595	723.6
465.008	738.4
465.421	736
465.813	745.8
466.226	749.6
466.64	733.4
467.053	797.6
467.445	749.6
467.859	749
468.272	741.8
468.686	752.8
469.078	737.4
469.492	737.2
469.906	742
470.298	750.4
470.712	727
471.126	809.4
471.54	721.2
471.933	724.4
472.347	737.2
472.761	744.4
473.175	732.8
473.568	739.4
473.982	727
474.397	732.4
474.79	753
475.204	747.6
475.619	737.2
476.033	742
476.426	738.8
476.841	734
477.256	754.4
477.649	727.6
478.064	722.4
478.479	733
478.872	725.6
479.287	717.2
479.702	728.6
480.118	724.6
480.511	730
480.927	728
481.342	727.4
481.736	733.2
482.151	726.2
482.566	747.6
482.96	732
483.376	749
483.792	725
484.186	737.6
484.602	735.8
485.017	739.2
485.412	746.4
485.827	738.2
486.243	733.4
486.638	755.4
487.054	744.8
487.47	746
487.865	724
488.281	724.4
488.697	720
489.092	721.6
489.508	719.6
489.925	736.4
490.32	720.2
490.736	735.6
491.153	735.6
491.548	734.6
491.964	743.8
492.381	713.6
492.776	728.6
493.193	722
493.61	734.4
494.006	726.6
494.422	730.4
494.84	724
495.235	743.6
495.652	725.6
496.069	722.8
496.465	718.4
496.883	734
497.3	751.6
497.696	720
498.113	727
498.509	711.8
498.927	716.2
499.344	723.2
499.741	710
500.158	735.8
500.576	736
500.973	729.4
501.39	709.6
501.787	707
502.205	721.8
502.623	708.8
503.02	706.8
503.438	716.2
503.856	713
504.253	726.6
504.671	710.8
505.068	706.6
505.486	711.6
505.905	737
506.302	716
506.72	729.4
507.118	710.2
507.536	725
507.955	716.6
508.352	709.8
508.771	718.8
509.169	716.8
509.587	713.2
510.006	716.4
510.404	696.4
510.823	710.8
511.221	699.4
511.64	702.6
512.038	723
512.457	705.6
512.877	705
513.275	695.4
513.694	705.4
514.092	708.2
514.512	716.2
514.91	706
515.33	698
515.749	705.4
516.148	711.8
516.568	699.2
516.966	706.4
517.386	702.8
517.785	702.4
518.205	696
518.603	693.6
519.024	692.8
519.444	703.6
519.843	711.6
520.263	707
520.662	707
521.082	692.4
521.481	699.2
521.902	702.4
522.301	711.2
522.722	695.2
523.121	697.6
523.542	694.6
523.963	693.4
524.362	693.4
524.783	694
525.183	692.8
525.604	702.6
526.003	689
526.425	690.4
526.824	700.8
527.246	703.8
527.646	702.8
528.067	693.6
528.467	693.6
528.888	703.6
529.289	695.2
529.71	694.6
530.11	692.8
530.532	693.6
530.932	681.6
531.354	674.8
531.755	721.2
532.176	697.4
532.577	686.6
532.999	689
533.4	691.8
533.822	698.8
534.223	693
534.645	682.2
535.046	689.6
535.468	691
535.869	701.8
536.292	673.4
536.693	727
537.115	680.6
537.516	681.8
537.939	677.4
538.34	702.6
538.742	697.6
539.165	693.2
539.566	690.8
539.989	677
540.391	674.2
540.814	689.4
541.216	684
541.639	683.4
542.041	689
542.464	676.2
542.866	679.6
543.268	676.8
543.691	681.4
544.093	693
544.517	701.8
544.919	677.2
545.343	707.6
545.745	671.4
546.147	684.4
546.571	670.2
546.974	666.8
547.398	677.8
547.8	691.6
548.224	675
548.627	677.4
549.03	683.6
549.454	680.8
549.857	657
550.281	665.8
550.684	672.8
551.087	691.8
551.512	689.2
551.915	678.4
552.34	671.4
552.743	683.6
553.146	681.6
553.571	676.8
553.975	701.8
554.399	678.2
554.803	730.6
555.207	670.4
555.632	670
556.036	684.4
556.461	667.8
556.865	678.2
557.268	673.6
557.694	678.4
558.098	683.8
558.502	682.2
558.927	675.6
559.332	676.6
559.736	678.2
560.162	684.6
560.566	666.6
560.992	683
561.396	684.2
561.801	675
562.227	681.4
562.631	668.2
563.036	673.2
563.462	680.8
563.867	681.2
564.272	652.8
564.698	680
565.103	666.8
565.508	695.2
565.935	681.4
566.34	670.6
566.745	688.2
567.172	671.2
567.577	694.6
567.982	686.4
568.409	670
568.815	662.4
569.22	675.8
569.626	681
570.053	660.2
570.459	670
570.865	681.2
571.292	682
571.698	679.8
572.104	650.4
572.531	676.6
572.937	684.2
573.343	677
573.75	665.2
574.177	683.2
574.583	676.8
574.99	674.4
575.396	676.4
575.824	670.4
576.231	679.6
576.637	668.4
577.065	705.6
577.472	668
577.879	667.8
578.286	686.8
578.714	660
579.121	675.2
579.528	678.8
579.935	679.6
580.364	663.8
580.771	654.4
581.178	660
581.585	663.4
582.014	670
582.421	661.8
582.829	659.6
583.236	673.4
583.644	654.2
584.073	663.8
584.481	661.8
584.889	657.8
585.296	674
585.726	666.4
586.134	654.2
586.542	655.4
586.95	686
587.358	654.4
587.787	670.6
588.196	652.2
588.604	661.8
589.012	675.6
589.421	649.8
589.851	664
590.259	661.2
590.668	670.6
591.076	703.8
591.485	665.8
591.894	666
592.324	675.8
592.733	688
593.142	657
593.551	662.8
593.96	699
594.369	656.8
594.8	659.8
595.209	664.2
595.618	642.4
596.028	660.8
596.437	662
596.847	666.4
597.256	665.8
597.687	664
598.097	656.4
598.507	657.8
598.917	671.6
599.327	672.8
599.736	674.8
600.146	674.8
600.556	672.6
600.988	679
601.398	662.6
601.808	678.6
602.219	653.8
602.629	672
603.039	661.2
603.45	687.4
603.86	661.2
604.271	671.8
604.703	666.8
605.114	664.8
605.525	665.8
605.935	671.2
606.346	694.2
606.757	669.8
607.168	667
607.579	656
607.99	677.6
608.402	666.8
608.813	671.6
609.224	657.2
609.636	651.4
610.047	654.8
610.48	672.6
610.892	675.6
611.303	673
611.715	665.4
612.127	660.2
612.539	666.2
612.95	662.4
613.362	652.2
613.774	658
614.186	665
614.599	656.8
615.011	676.2
615.423	662.4
615.835	661.6
616.248	657
616.66	665
617.073	659.4
617.485	663.6
617.898	670.8
618.311	669
618.723	664.6
619.136	700.8
619.549	675
619.962	685.4
620.375	658.6
620.788	670.4
621.201	659.8
621.614	665
622.028	662
622.441	671.6
622.854	675.8
623.268	654.2
623.681	672.2
624.095	663.8
624.509	673.2
624.922	668.2
625.336	646.4
625.728	667.8
626.142	668.2
626.556	687
626.97	674.6
627.384	664.8
627.799	672.8
628.213	670
628.627	659.4
629.041	657.8
629.456	655.2
629.87	662.4
630.285	672
630.699	673.4
631.093	661.6
631.507	664.6
631.922	658.4
632.337	668
632.752	655.6
633.167	656.6
633.582	661.4
633.997	662.2
634.412	659.2
634.806	660
635.221	651.8
635.637	666.4
636.052	649.4
636.468	663.4
636.883	687.2
637.299	658.8
637.715	649.6
638.109	662
638.525	643.4
638.941	678.2
639.357	665.8
639.773	671
640.189	656.2
640.584	665.2
641	669.2
641.416	649.2
641.832	662.8
642.249	647.8
642.665	663.4
643.06	665.4
643.477	667.6
643.894	646
644.31	658.6
644.727	658.4
645.123	657.4
645.54	645
645.957	661.2
646.374	680.4
646.77	654.6
647.187	702
647.604	660.8
648.021	646
648.439	655.6
648.835	657.8
649.252	663
649.67	653.8
650.088	660.6
650.484	667
650.902	658.4
651.32	669
651.738	650.8
652.134	659.8
652.552	677.6
652.971	664.6
653.389	661.4
653.786	672.2
654.204	676.2
654.622	653.4
655.019	650.2
655.438	670
655.857	672.8
656.275	658.8
656.673	647.8
657.091	741.8
657.51	659.8
657.908	673.8
658.327	682.8
658.746	656.2
659.144	661.6
659.563	674.2
659.982	668.4
660.38	646.2
660.8	666.2
661.219	672.2
661.617	660
662.037	660.8
662.457	683
662.855	645.2
663.275	701
663.695	657.8
664.094	663.6
664.514	666
664.934	655
665.333	673.4
665.753	653.8
666.152	656.4
666.572	662.4
666.993	666.8
667.392	657.4
667.812	650.8
668.212	658
668.632	674
669.053	655.6
669.453	655.6
669.874	656.8
670.273	654.2
670.694	653.2
671.116	667
671.515	671
671.937	652.8
672.337	655.4
672.758	657.2
673.158	668.8
673.58	647.8
673.98	663.8
674.402	678.4
674.824	659.6
675.224	650.2
675.646	643
676.047	654.6
676.469	661.6
676.869	665
677.292	655
677.693	655.4
678.115	657.8
678.516	657.8
678.939	666.4
679.34	657.6
679.762	671.6
680.164	659.2
680.586	648
680.988	658.8
681.411	683.6
681.812	653.2
682.236	651.4
682.637	648.4
683.061	648.8
683.462	656.6
683.864	647.2
684.288	664.2
684.69	636.4
685.114	664.8
685.516	667.8
685.94	647.6
686.342	655.8
686.766	650.8
687.168	646.4
687.571	669
687.995	654.8
688.398	655.4
688.822	649
689.225	668
689.628	681.4
690.052	652.8
690.456	670.4
690.88	655
691.284	647.8
691.687	655.6
692.112	649
692.515	648.2
692.919	663.6
693.344	661
693.747	663.2
694.173	650.8
694.577	666
694.98	659.2
695.406	660.2
695.81	654.4
696.214	652.8
696.64	666.6
697.044	657.6
697.448	666.2
697.874	660
698.279	646.4
698.684	651.8
699.11	649.6
699.514	654.2
699.919	644.8
700.324	641.4
700.75	654.2
701.156	660.4
701.561	668.8
701.987	660.8
702.393	665.8
702.798	662.6
703.203	658
703.63	658.6
704.036	660.4
704.442	655.6
704.847	645.6
705.274	654.2
705.68	661.2
706.086	665.4
706.492	647
706.92	655.6
707.326	669.6
707.732	658
708.139	642.4
708.545	649.8
708.973	650.8
709.38	661
709.786	641.2
710.193	673.4
710.6	657.8
711.028	648
711.435	654
711.842	652.2
712.249	653.8
712.656	653.4
713.064	660.6
713.492	650.6
713.9	652.2
714.307	649.8
714.715	662.6
715.123	654.4
715.53	650.4
715.938	664.8
716.367	658.4
716.775	650.8
717.184	647.4
717.592	659
718	669
718.408	695.2
718.816	709.2
719.225	664.8
719.633	656.2
720.042	641.6
720.472	653.6
720.881	672.2
721.29	666.8
721.699	651
722.108	663.6
722.517	661.6
722.926	661.2
723.335	670.6
723.744	655.4
724.154	656.4
724.563	658.2
724.973	661
725.382	652.6
725.792	651.6
726.202	649.2
726.612	677.6
727.022	649.6
727.432	651.2
779.813	658
780.223	710.2
780.634	649
781.044	644
781.454	651.8
781.865	667.4
782.276	644.8
782.686	668.8
783.097	654.4
783.508	653.8
783.919	665.4
784.33	662.6
784.741	665.8
785.152	645.4
785.563	636.4
785.974	651.4
786.386	675.8
786.776	656
787.188	662.4
787.599	642.8
788.011	667
788.423	658.4
788.835	655
789.247	656.4
789.659	646.6
790.071	651
790.483	701.6
790.874	641.8
791.286	664
791.699	655.8
792.111	661
792.524	658.6
792.937	658.4
793.349	645.2
793.741	650.2
794.154	642.2
794.567	677.8
794.98	652.2
795.393	635.6
795.785	672.2
796.198	649.8
796.612	660.2
797.026	656.2
797.439	629
797.831	643.8
798.245	638.2
798.659	654
799.073	649.2
799.487	639.2
799.88	651.4
800.294	647.2
800.708	658
801.123	665.4
801.516	679
801.93	642.2
802.345	649
802.76	648.2
803.153	664.8
803.568	671.6
803.983	666.4
804.377	660
804.792	642
805.207	634
805.601	649.8
806.016	694.2
806.432	647.6
806.826	692.2
807.242	667.4
807.658	646.4
808.052	649
808.468	646.2
808.884	639
809.279	654
809.695	659.2
810.111	679.8
810.506	658.6
810.922	677.4
811.339	655.6
811.734	670.4
812.151	645.2
812.546	647.4
812.963	646.2
813.38	652.6
813.776	653.8
814.193	680.8
814.589	640.8
815.006	644.6
815.402	657
815.82	654.4
816.237	652.4
816.633	666
817.051	652.4
817.448	663.8
817.866	641.8
818.262	674.8
818.68	651.8
819.077	653.4
819.495	661
819.892	695
820.311	651.2
820.708	636.8
821.127	650.6
821.524	666
821.943	662.4
822.34	675.2
822.759	662.6
823.157	651
823.576	655.6
823.974	659.2
824.393	775.8
824.791	641.8
825.189	639
825.609	649.8
826.007	646.4
826.427	644.6
826.826	650
827.246	658.6
827.644	641
828.043	667.6
828.463	651
828.862	660
829.261	660.8
829.682	636.8
830.081	660.2
830.502	651.2
830.901	662.6
831.301	643.8
831.722	644
832.121	656
832.521	648
832.943	646.8
833.342	653.4
833.742	646
834.164	656.2
834.564	643.4
834.965	649.4
835.386	647
835.787	651
836.188	654.6
836.588	651
837.01	657.8
837.411	650.6
837.812	660.4
838.213	652.8
838.636	649.8
839.037	728.2
839.438	643
839.84	657.4
840.263	653.8
840.664	653.2
841.066	645
841.468	647.4
841.891	642.4
842.293	649.4
842.695	663.8
843.098	660.4
843.5	636.4
843.902	651
844.326	652.6
844.729	648.6
845.131	664.6
845.534	649.8
845.937	662.8
846.34	664.4
846.764	647.8
847.167	657.6
847.571	643
847.974	649.4
848.377	647
848.781	705.8
849.184	663.8
849.588	652
849.992	651
850.396	651
850.821	682
851.225	649.8
851.63	648
852.034	675.6
852.438	649.8
852.843	798.6
853.247	647
853.652	639
854.057	668
854.462	650
854.867	658.2
855.272	685.4
855.677	659.2
856.082	645.8
856.487	640.8
856.893	659.4
857.298	648.2
857.704	643.4
858.11	649.4
858.516	665.6
858.922	648.8
859.328	668.2
859.734	653.6
860.14	657.8
860.525	663.4
860.931	648
861.338	649.8
861.745	653.2
862.151	651.6
862.558	649.8
862.965	643.8
863.372	649.2
863.779	656.2
864.186	675.8
864.572	653
864.98	683
865.387	691.8
865.795	647.6
866.203	661
866.61	646
867.018	659.8
867.405	659.4
867.813	648.8
868.221	651.6
868.63	644.4
869.038	658.4
869.425	689
869.834	649.2
870.243	642.4
870.652	645.8
871.039	647.2
871.448	655.2
871.857	658.6
872.266	650.8
872.654	666.4
873.064	655.4
873.473	662.4
873.883	652
874.271	646.6
874.681	664.4
875.091	643.8
875.48	670.4
875.89	669
876.3	653.2
876.689	633.8
877.1	654
877.51	653
877.9	674.6
878.31	656.4
878.721	692.8
879.111	659.4
879.522	659.2
879.933	638.2
880.323	644
880.734	649.6
881.125	657
881.536	652.2
881.948	645.6
882.338	655.6
882.75	665.6
883.141	655.8
883.553	653.8
883.944	674
884.356	665.2
884.769	651.4
885.16	643
885.573	654.2
885.964	648.6
886.377	653.8
886.768	635.4
887.181	648.8
887.573	649.2
887.987	664.8
888.378	674.4
888.792	663.8
889.184	702.6
889.598	644.6
889.99	649.4
890.383	655.8
890.797	637.4
891.19	659
891.604	648
891.997	641.4
892.411	649
892.805	646
893.198	643.8
893.613	626.4
894.006	659.8
894.421	639.4
894.815	647.4
895.209	643.4
895.624	699
896.018	667.6
896.412	644.2
896.828	645.2
897.222	656.4
897.617	643.2
898.033	671.8
898.427	661.6
898.822	647.6
899.239	641.6
899.634	640.4
900.029	665.4
900.424	651.8
900.841	634
901.236	658.2
901.632	652.2
902.027	717.2
902.445	653.4
902.841	650
903.237	649.6
903.633	664.2
904.05	657.8
904.447	653.8
904.843	657.4
905.24	647.4
905.636	642
906.033	640.8
906.451	666.2
906.848	642.2
907.246	641.2
907.643	646
908.04	651.6
908.438	663.2
908.835	653.2
909.254	650
909.652	656.6
910.05	648.8
910.448	639.8
910.846	650.2
911.244	638.2
911.643	648
912.041	637.6
912.44	666.6
912.839	640.6
913.237	647
913.636	642.2
914.035	654.2
914.434	646.6
914.834	666.6
915.233	661.2
915.633	647
916.032	645
916.432	645.2
916.832	659.2
917.232	644.4
917.632	650.4
918.032	655.8
918.432	659.6
918.833	650.4
919.233	644
919.634	642.8
920.035	654.6
920.436	638.8
920.837	645.6
921.238	640.4
921.639	647.2
922.019	651.4
922.42	649.4
922.822	654.2
923.224	643
923.625	646
924.027	638.4
924.429	677
924.81	648
925.212	658.4
925.615	654
926.017	647.4
926.42	658
926.801	645.4
927.204	644.6
927.607	658.6
928.01	666.2
928.413	660
928.795	632.8
929.199	637.6
929.602	640.2
930.006	637.8
930.388	640
930.792	651.2
931.196	641
931.579	689.6
931.983	633.4
932.388	700.2
932.771	643.8
933.176	631.6
933.58	659.8
933.964	658.2
934.369	636
934.774	661.6
935.158	656.4
935.563	648.2
935.947	659.6
936.353	658.6
936.759	643.4
937.143	649.8
937.549	662.4
937.934	662.8
938.34	673
938.746	651.6
939.131	641.2
939.538	640
939.923	650.8
940.33	638.8
940.716	644.2
941.123	656.4
941.508	649
941.916	667.6
942.302	656.8
942.709	637
943.096	635.8
943.503	645
943.89	640.6
944.298	643.4
944.685	671.2
945.072	640.2
945.48	654.8
945.867	642
946.276	643.4
946.663	675.6
947.051	665.4
947.46	652
947.848	645
948.257	651.4
948.645	649.4
949.033	640
949.443	636.4
949.831	693
950.22	634.8
950.63	656.6
951.018	676.4
951.407	647.2
951.796	634.2
952.207	657.2
952.596	654
952.985	641.4
953.375	691
953.786	649.2
954.176	640.8
954.566	656.2
954.956	626.6
955.367	646.8
955.758	673.6
956.148	639
956.539	650.8
956.929	642.2
957.341	635.8
957.732	645
958.123	659.4
958.515	643.6
958.906	656
959.297	647.8
959.689	651
960.102	634.2
960.494	651.4
960.886	644.2
961.278	647.8
961.67	670.2
962.062	686.4
962.455	648.6
962.847	639.6
963.24	636.2
963.633	646.6
964.026	632.4
964.419	648.4
964.812	661.6
965.206	645.2
965.599	654.6
965.993	649.8
966.386	652
966.78	654
967.174	653.2
967.569	641.2
967.963	644.8
968.357	642.6
968.752	639.2
969.146	642.4
969.541	643.8
969.936	647.6
970.331	649
970.705	633.4
971.1	651.8
971.496	651.6
971.892	637.4
972.287	651.2
972.683	651.8
973.079	642.8
973.454	659.2
973.85	650.2
974.247	662.6
974.643	677.6
975.04	654.2
975.415	647
975.812	630
976.209	652.6
976.607	638.2
976.982	662
977.38	660.2
977.778	653.8
978.175	649.6
978.552	647.2
978.95	649.2
979.348	648.6
979.725	701.8
980.123	648.2
980.522	639.4
980.899	644.2
981.298	646.8
981.697	651.4
982.075	645.4
982.474	638
982.852	646.4
983.251	657.8
983.651	646.4
984.029	656.6
984.429	653.6
984.808	635.6
985.208	638.8
985.609	637
985.987	634.2
986.388	636.6
986.768	651.6
987.168	648.2
987.548	647.4
987.949	653.8
988.329	657
988.731	639.2
989.111	648
989.491	641
989.893	647.4
990.273	659.2
990.676	645.6
991.057	641.2
991.459	645.4
991.84	657.2
992.221	638.6
992.624	661
993.006	642.8
993.388	643.2
993.791	655.8
994.173	643.8
994.576	693.2
994.959	636.2
995.341	638.4
995.724	641.8
996.128	638.8
996.511	646
996.894	643
997.298	636.6
997.681	659.4
998.065	634.4
998.448	639.6
998.854	654.2
999.237	639.8
999.621	656.6
1000.01	666.6
1000.39	653
1000.8	641.6
1001.18	649.8
1001.56	656.2
1001.95	654.4
1002.33	645.6
1002.72	644.6
1003.13	643.2
1003.51	648.8
1003.9	632.6
1004.28	661.2
1004.67	632.2
1005.06	650.8
1005.44	685
1005.83	627
1006.21	644.4
1006.6	641.4
1006.99	651.2
1007.37	654.6
1007.76	638.2
1060.12	647.2
1060.51	636.6
1060.89	654.6
1061.28	647.4
1061.67	657.2
1062.06	650.6
1062.45	649.6
1062.83	632.8
1063.22	659.2
1063.61	686.6
1064	651.4
1064.39	649.6
1064.78	645
1065.14	664.6
1065.53	646.4
1065.92	639
1066.31	646.8
1066.7	658
1067.09	665.4
1067.46	657.8
1067.85	646.8
1068.24	638
1068.63	654.4
1069.02	648.4
1069.39	657.4
1069.78	641
1070.17	641.4
1070.57	638.2
1070.93	659.4
1071.33	638
1071.72	650.8
1072.11	634.8
1072.48	633.8
1072.87	636.8
1073.26	641.8
1073.64	643.6
1074.03	628.8
1074.4	645.8
1074.79	641.6
1075.19	646.2
1075.56	648.6
1075.95	639.4
1076.34	643.4
1076.72	639.4
1077.11	646.8
1077.48	666.2
1077.88	649.6
1078.25	640.8
1078.64	649.8
1079.02	646.6
1079.41	656.2
1079.78	644.4
1080.18	641
1080.55	724.8
1080.95	637.8
1081.32	635.2
1081.72	652.4
1082.09	648.8
1082.49	638.6
1082.86	646.8
1083.24	633.8
1083.63	645.4
1084.01	646.8
1084.38	659.2
1084.78	638
1085.16	649
1085.55	662
1085.93	654.8
1086.31	637.4
1086.7	670.2
1087.08	649
1087.46	642
1087.83	633.6
1088.23	651.8
1088.61	643.4
1088.99	641.2
1089.36	641
1089.76	644.4
1090.14	640
1090.52	637.8
1090.9	641.8
1091.27	645.6
1091.67	667
1092.05	653.8
1092.43	638.8
1092.81	658.4
1093.19	652.4
1093.57	637.6
1093.95	642.8
1094.35	654.8
1094.73	649.6
1095.11	642.6
1095.49	641.2
1095.87	645.4
1096.25	650.4
1096.63	647.6
1097.01	648.4
1097.39	650
1097.77	638.8
1098.15	651
1098.53	640.2
1098.91	645.4
1099.29	638.2
1099.68	665.4
1100.06	656.4
1100.44	637
1100.82	635
1101.18	652.4
1101.56	643
1101.95	643.6
1102.33	640.8
1102.71	642
1103.1	640.4
1103.48	636.8
1103.86	629.4
1104.22	641.8
1104.61	644.8
1104.99	634.8
1105.38	636.4
1105.76	648.4
1106.12	644.2
1106.51	674.6
1106.89	654.6
1107.26	644.2
1107.64	659.6
1108.03	636
1108.41	643.4
1108.78	643.8
1109.16	646.2
1109.55	649.8
1109.91	634
1110.3	624
1110.69	660
1111.05	647.2
1111.44	640.8
1111.8	643.6
1112.19	646.2
1112.58	645.4
1112.94	642.2
1113.33	634.4
1113.7	632.4
1114.09	636.6
1114.45	639.2
1114.84	640.4
1115.21	654.6
1115.6	642.6
1115.96	647.8
1116.35	652.2
1116.72	648.6
1117.11	658.4
1117.48	638.4
1117.85	643.6
1118.24	667.6
1118.6	650.8
1118.99	636.6
1119.36	650.2
1119.73	641
1120.12	640
1120.49	639.4
1120.86	652.4
1121.25	648.6
1121.62	637.2
1121.99	635.4
1122.38	656.6
1122.76	651.6
1123.13	633
1123.5	650.4
1123.89	657.2
1124.26	636.2
1124.63	651.2
1125	643.4
1125.4	637.6
1125.77	636
1126.14	622.2
1126.51	643.4
1126.88	650.6
1127.26	631
1127.63	628
1128.02	639
1128.4	627.2
1128.77	639.4
1129.14	633.2
1129.52	643.4
1129.89	645.4
1130.26	637
1130.64	628
1131.01	639.2
