#lambda/nm	C1
208.295	538.8
208.67	489.6
209.045	443.2
209.419	450.4
209.794	675.2
210.169	660.6
210.544	805
210.919	683.4
211.295	678.2
211.67	681.8
212.045	677.8
212.421	675.8
212.796	728
213.172	674.2
213.547	680.8
213.923	684.8
214.299	679
214.675	692.8
215.051	690.6
215.427	690
215.803	704.6
216.179	691.8
216.555	671.4
216.932	686
217.308	680
217.684	684.4
218.061	682.2
218.438	672.6
218.814	678.4
219.191	694.6
219.568	683.2
219.945	679
220.322	692.6
220.699	684
221.076	693.4
221.453	685
221.83	676.6
222.208	678.6
222.585	678.4
222.962	683
223.34	694.4
223.717	681.4
224.095	685
224.473	683
224.851	676
225.229	671.6
225.607	694.8
225.985	669.8
226.363	683.6
226.741	685
227.119	678
227.497	698.2
227.876	663.4
228.254	691
228.633	685.2
229.011	682.4
229.39	686.8
229.769	680.8
230.148	682
230.527	700.2
230.905	681
231.284	683.6
231.664	684.8
232.043	697.8
232.422	695
232.801	671
233.181	684.6
233.56	674.4
233.94	682.8
234.319	663.4
234.699	686.6
235.079	722.8
235.458	731.6
235.838	706.8
236.218	665.8
236.598	666.6
236.978	671.4
237.358	685.2
237.738	674.6
238.119	690
238.499	675.6
238.88	686.4
239.26	696
239.641	672.4
240.021	685.8
240.402	678.2
240.783	676.4
241.163	678.8
241.544	688.4
241.925	687.6
242.306	701
242.687	685.2
243.069	683.8
243.45	693.6
243.831	674
244.212	690.2
244.594	720.2
244.975	696.4
245.357	693
245.739	674.6
246.12	688
246.502	701.2
246.884	679.6
247.266	680.6
247.648	689.6
248.03	705
248.412	689.6
248.794	697
249.176	681.8
249.559	698.8
249.941	676.4
250.323	674
250.706	683.8
251.089	684.2
251.471	689.2
251.854	683.4
252.237	688.8
252.62	685
253.002	687.4
253.385	681.6
253.769	699.6
254.152	684.6
254.535	692.2
254.918	669.6
255.301	679.6
255.685	680.4
256.068	680.8
256.452	707.2
256.835	699.2
257.219	690.2
257.603	702
257.986	684.4
258.37	691.8
258.754	672.2
259.138	690.4
259.522	694.4
259.906	681.2
260.29	685
260.675	682.8
261.059	685.4
261.443	665
261.828	684.6
262.212	689.6
262.597	669
262.981	672.4
263.366	696.2
263.751	679.4
264.136	675.6
264.521	679
264.906	679.6
265.291	690.8
265.676	670.2
266.061	684.8
266.446	700.4
266.831	687.6
267.217	705.6
267.602	684.4
267.987	682.8
268.373	680.6
268.759	696.6
269.144	696.2
269.53	681.8
269.916	678.2
270.302	673.4
270.688	690.4
271.074	694
271.46	697.4
271.846	727
272.232	684.6
272.618	668
273.004	679
273.391	697.4
273.777	704.6
274.164	695.6
274.55	712.6
274.937	683.8
275.324	678.6
275.71	684.6
276.097	694.2
276.484	677.2
276.871	690.8
277.258	692.6
277.645	673.6
278.032	683
278.419	679.4
278.807	694.4
279.194	672.4
279.581	681.2
279.969	696.2
280.356	687.2
280.744	689.6
281.131	722
281.519	697
281.907	681.6
282.295	688.6
282.682	696.8
283.07	686.6
283.458	685.6
283.846	697
284.235	693.2
284.623	691.6
285.011	671.8
285.399	684.2
285.788	683.4
286.176	685
286.565	710.6
286.953	681.8
287.342	683.8
287.731	670.6
288.119	673.2
288.508	686.6
288.897	685.2
289.286	674.6
289.675	685.6
290.064	695.6
290.453	683.2
290.821	675
291.21	704.6
291.599	676.4
291.989	687.2
292.378	696
292.768	709.4
293.157	687.6
293.547	698.6
293.936	680.4
294.326	679.6
294.716	688
295.106	685.2
295.496	696.8
295.886	692
296.276	677.8
296.666	680.2
297.056	680
297.446	664
297.836	696.6
298.227	692.8
298.617	691.2
299.008	702
299.398	688.6
299.789	674.8
300.179	695.2
300.57	696.4
300.961	687.6
301.352	680.8
301.742	696.6
302.133	698.2
302.524	683.6
302.915	684.8
303.307	675
303.698	697.6
304.089	695.4
304.48	692.2
304.872	687
305.263	691.4
305.655	685.6
306.046	694.6
306.438	701
306.829	679.4
307.221	701.8
307.613	698.2
308.005	695.4
308.397	700.4
308.789	712
309.181	727.8
309.573	708.2
309.965	705.2
310.357	686
310.749	711.2
311.142	679.4
311.534	681.6
311.926	695.2
312.319	693
312.711	685.8
313.104	698
313.497	680.4
313.889	731
314.282	702.6
314.675	713.2
315.068	689
315.461	700
315.854	719.6
316.247	695.8
316.64	682.6
317.033	686.6
317.405	697
317.798	688.2
318.192	686.4
318.585	677.4
318.979	691.4
319.372	677
319.766	685.4
320.16	691.8
320.553	702.6
320.947	706.4
321.341	685.8
321.735	689.6
322.129	672
322.523	716.4
322.917	680.2
323.311	701.6
323.705	693
324.099	692.4
324.494	708
324.888	698.8
325.282	681
325.677	696.2
326.071	690
326.466	704
326.861	688.8
327.255	697.4
327.65	708.2
328.045	710
328.44	693.8
328.835	689.8
329.23	682.6
329.625	714.2
330.02	676.2
330.415	707.2
330.81	684.6
331.206	695.4
331.601	675.4
331.996	681
332.37	707
332.766	680.8
333.161	716.6
333.557	683
333.953	686
334.348	1064.8
334.744	698.6
335.14	681.8
335.536	676.2
335.932	690
336.328	681.8
336.724	698.2
337.12	693.8
337.516	695.8
337.913	689.4
338.309	705.4
338.705	682.2
339.102	694
339.498	686.2
339.895	702.2
340.291	681.4
340.688	691.4
341.085	673.2
341.481	693.8
341.878	680.2
342.275	708.2
342.672	673.8
343.069	683.8
343.466	678.4
343.842	695.2
344.239	681.8
344.636	684.4
345.033	673.2
345.431	677
345.828	692.4
346.225	682.4
346.623	720.6
347.02	687.8
347.418	686.8
347.816	704.4
348.213	680.6
348.611	684.6
349.009	684
349.407	693.4
349.805	674.8
350.203	670.4
350.601	701.8
350.999	688.6
351.397	736.2
351.795	688
352.193	690
352.57	687
352.969	702.6
353.367	674.8
353.766	676.8
354.164	685.6
354.563	693.8
354.961	682
355.36	686
355.759	682.8
356.158	665
356.557	673
356.956	674.2
357.355	668.2
357.754	680.2
358.153	690.2
358.552	711.6
358.951	674.2
359.35	697.4
359.75	684.6
360.149	676
360.527	664.4
360.926	666.6
361.326	678.6
361.726	680.4
362.125	671.6
362.525	688.2
362.925	682.2
363.325	675.6
363.724	683.6
364.124	665.4
364.524	668.8
364.924	679.2
365.324	688
365.725	665.4
366.125	687.6
366.525	672.4
366.904	669.8
367.304	655.6
367.705	692
368.105	697
368.506	679.4
368.906	681.2
369.307	674
369.708	685.8
370.108	663.8
370.509	691
370.91	670.6
371.311	679
371.712	684
372.113	680.6
372.514	659
372.894	683
373.295	667.4
373.696	693
374.097	682.6
374.499	716.6
374.9	681.2
375.301	679
375.703	682.4
376.105	670.8
376.506	686
376.908	680.4
377.309	683.4
377.711	687.6
378.113	684.2
378.493	678.4
378.895	665
379.297	694.4
379.699	670.4
380.102	684.2
380.504	674.6
380.906	679.2
381.308	713.4
381.71	674.8
382.113	693.6
382.515	683.4
382.918	683.4
383.299	676.4
383.701	683.4
384.104	672.6
384.507	657.2
384.909	676.2
385.312	657
385.715	671.4
386.118	682.4
386.521	661.6
386.924	689
387.327	672.8
387.709	673
388.112	663.6
388.515	672.2
388.918	681.6
389.322	688.8
389.725	671.2
390.129	700.8
390.532	690.2
390.936	664.8
391.339	662.4
391.743	681.4
392.125	667.6
392.529	685.6
392.933	693
393.337	683
393.74	672.2
394.144	685.2
394.548	682.8
394.953	684.8
395.357	684.6
395.761	672
396.144	672.4
396.548	678
396.952	674
397.357	677.6
397.761	670.6
398.166	681.4
398.57	670
398.975	667
399.379	682.2
399.763	734.4
400.168	682.6
400.572	683.6
400.977	678.8
401.382	694.8
401.787	684.2
402.192	696.2
402.597	690.2
403.002	673.2
403.386	687.4
403.791	694.4
404.197	677.8
404.602	685.4
405.007	678.8
405.413	681.4
405.818	681
406.224	671.4
406.608	675.8
407.014	675.2
407.42	693.8
407.825	682.8
408.231	691.8
408.637	683
409.043	686
409.449	680
409.834	670
410.24	678.6
410.646	694.4
411.052	688
411.458	689.2
411.865	690.6
412.271	686
412.677	685.4
413.062	687.4
413.469	674.2
413.875	710
414.282	693.8
414.689	686.2
415.095	678.2
415.502	669.8
415.888	686.4
416.294	660.4
416.701	721
417.108	670.6
417.515	687.4
417.923	677
418.33	697.2
418.715	688.4
419.123	680.8
419.53	675.6
419.937	680.8
420.345	697
420.752	679.8
421.16	701.6
421.546	677
421.953	683
422.361	676.8
422.769	685
423.177	669.2
423.585	709
423.992	696.8
424.379	695.4
424.787	689.8
425.195	707.8
425.603	684.6
426.011	700
426.419	690.8
426.806	677.6
427.214	686.6
427.623	688.2
428.031	694.4
428.44	692.6
428.848	694
429.235	704.6
429.644	687.2
430.053	685.8
430.461	701.8
430.87	708.8
431.279	692.8
431.666	671.4
432.075	684
432.484	687.8
432.893	683.6
433.302	700.2
433.711	735
434.099	685.6
434.508	682.8
434.918	670.6
435.327	693
435.737	694
436.125	693.4
436.534	695.4
436.944	693.2
437.353	694.2
437.763	718
438.173	689.4
438.561	710.8
438.971	683.4
439.381	703.2
439.791	711.2
440.201	686.2
440.589	712.2
440.999	715.2
441.409	705.6
441.819	689.8
442.23	722.4
442.619	715.8
443.029	707
443.439	718
443.85	724.2
444.26	729.8
444.649	726.2
445.06	720.4
445.471	713.2
445.881	720.2
446.292	739
446.682	741.8
447.092	706.8
447.503	781.8
447.914	712.4
448.325	721.4
448.715	724.6
449.126	722.2
449.537	722
449.948	730.2
450.338	723.4
450.75	734.4
451.161	729.6
451.572	746.8
451.984	723
452.374	708.2
452.786	732.8
453.197	736.8
453.609	738.8
453.999	706
454.411	715.4
454.823	749.4
455.235	742
455.647	733.2
456.037	732.8
456.449	707.4
456.862	736.6
457.274	742.8
457.665	726
458.077	748
458.489	772
458.902	730
459.293	737.2
459.705	735.6
460.118	728.8
460.53	736.4
460.921	737.2
461.334	740.8
461.747	735.6
462.16	744.8
462.551	757.2
462.964	747.4
463.377	720.2
463.79	722.6
464.182	747
464.595	723.4
465.008	735.8
465.421	750
465.813	734
466.226	741
466.64	731.6
467.053	792.8
467.445	754
467.859	751.6
468.272	739.2
468.686	749.2
469.078	733.4
469.492	721.2
469.906	744.4
470.298	741.6
470.712	733
471.126	808.2
471.54	728.6
471.933	729.2
472.347	741
472.761	731.4
473.175	722.4
473.568	731.2
473.982	735
474.397	744
474.79	735.8
475.204	748.8
475.619	735.2
476.033	743.8
476.426	736.8
476.841	729.2
477.256	773
477.649	735.6
478.064	727.4
478.479	730.4
478.872	730
479.287	716.6
479.702	731.8
480.118	738.4
480.511	733.2
480.927	740.6
481.342	739.6
481.736	734.2
482.151	735.4
482.566	746.6
482.96	733.6
483.376	745.2
483.792	725.2
484.186	738.6
484.602	731
485.017	735.6
485.412	735.6
485.827	734.2
486.243	732.4
486.638	759.8
487.054	744
487.47	750.6
487.865	722.6
488.281	731.6
488.697	723
489.092	729.8
489.508	710.8
489.925	728.2
490.32	703.4
490.736	733.2
491.153	724.8
491.548	719.8
491.964	733.6
492.381	705
492.776	736.8
493.193	724.8
493.61	735.8
494.006	733.6
494.422	728.8
494.84	719.4
495.235	737.4
495.652	726.4
496.069	728
496.465	721.4
496.883	716.4
497.3	756.6
497.696	719.4
498.113	733.8
498.509	710.2
498.927	702.8
499.344	709.2
499.741	715
500.158	725.2
500.576	726
500.973	725
501.39	717.6
501.787	709.8
502.205	729.8
502.623	715.8
503.02	705.8
503.438	718.2
503.856	717.8
504.253	729
504.671	721
505.068	707.6
505.486	706.6
505.905	731.6
506.302	716.2
506.72	721.4
507.118	699.6
507.536	713.4
507.955	712
508.352	714
508.771	706.6
509.169	718.8
509.587	703.2
510.006	708.8
510.404	701.2
510.823	706
511.221	706.8
511.64	704
512.038	722
512.457	707.4
512.877	698.4
513.275	701
513.694	708.2
514.092	702.4
514.512	710.2
514.91	702
515.33	700.2
515.749	708
516.148	715.6
516.568	706.2
516.966	704
517.386	698.8
517.785	696.2
518.205	693
518.603	700
519.024	682.2
519.444	703.4
519.843	706.8
520.263	726.8
520.662	701.6
521.082	691
521.481	702.4
521.902	696.8
522.301	704.6
522.722	695
523.121	695.8
523.542	690.8
523.963	700.2
524.362	703
524.783	697.6
525.183	697.2
525.604	691.6
526.003	683.6
526.425	687
526.824	698.6
527.246	700.6
527.646	695.4
528.067	688
528.467	698.2
528.888	699.4
529.289	693.6
529.71	695.8
530.11	686.2
530.532	692.8
530.932	675.2
531.354	682.6
531.755	728.8
532.176	699.6
532.577	693.4
532.999	696.6
533.4	682.6
533.822	703.4
534.223	689.4
534.645	688.2
535.046	685.8
535.468	693.4
535.869	703.4
536.292	677.2
536.693	724.4
537.115	696.8
537.516	680.4
537.939	678.8
538.34	702.6
538.742	707.8
539.165	685
539.566	686.4
539.989	676.2
540.391	684.6
540.814	684.4
541.216	691.2
541.639	684.8
542.041	686.8
542.464	686.8
542.866	681.2
543.268	672.4
543.691	695.2
544.093	686.2
544.517	703.4
544.919	677.2
545.343	706.2
545.745	674.4
546.147	691
546.571	677.8
546.974	668.6
547.398	675.4
547.8	697.4
548.224	671.6
548.627	676.8
549.03	685.8
549.454	664.4
549.857	661.8
550.281	662.6
550.684	673.8
551.087	693.4
551.512	685.6
551.915	689.2
552.34	680.2
552.743	678.6
553.146	684.4
553.571	685
553.975	706.4
554.399	672.6
554.803	732.6
555.207	673.2
555.632	678.2
556.036	686.2
556.461	666.8
556.865	681
557.268	667
557.694	684.6
558.098	683.8
558.502	686.8
558.927	674
559.332	678.2
559.736	682.2
560.162	675.2
560.566	678.4
560.992	688
561.396	677.8
561.801	673
562.227	681.6
562.631	673.2
563.036	675.4
563.462	687.8
563.867	674.4
564.272	660.2
564.698	677.2
565.103	660.2
565.508	699
565.935	674.6
566.34	666.2
566.745	687.4
567.172	669.6
567.577	699.2
567.982	686.6
568.409	678
568.815	662
569.22	668.4
569.626	679.2
570.053	653.2
570.459	676.6
570.865	677.2
571.292	678
571.698	680.8
572.104	656.4
572.531	668.6
572.937	683.4
573.343	668
573.75	660.2
574.177	675.2
574.583	676.8
574.99	660
575.396	677.4
575.824	670
576.231	673.2
576.637	665.6
577.065	699.2
577.472	666
577.879	670.4
578.286	687.4
578.714	660
579.121	672.2
579.528	675.2
579.935	672.8
580.364	670
580.771	652.4
581.178	660
581.585	683.4
582.014	681.4
582.421	673
582.829	660.2
583.236	682
583.644	661.6
584.073	665.4
584.481	672
584.889	663.6
585.296	671.8
585.726	668.8
586.134	655.8
586.542	666.2
586.95	686.2
587.358	664.2
587.787	667.4
588.196	655
588.604	664.4
589.012	670.2
589.421	654.4
589.851	663.2
590.259	669
590.668	667.8
591.076	712.4
591.485	658.8
591.894	670.8
592.324	678.8
592.733	677.6
593.142	648
593.551	659.6
593.96	669.2
594.369	652.4
594.8	651
595.209	666.8
595.618	643.2
596.028	664
596.437	657.4
596.847	662.2
597.256	663.6
597.687	674.4
598.097	668.4
598.507	657.2
598.917	662.2
599.327	670.6
599.736	672.6
600.146	679.4
600.556	664.2
600.988	680.4
601.398	661
601.808	673.2
602.219	662.8
602.629	668.6
603.039	667.8
603.45	699
603.86	664.2
604.271	677.4
604.703	664.4
605.114	670.6
605.525	668
605.935	670.2
606.346	693
606.757	670.8
607.168	664.2
607.579	656.2
607.99	674.6
608.402	670.2
608.813	673
609.224	663.8
609.636	650
610.047	661.6
610.48	663.4
610.892	662.6
611.303	683.4
611.715	665.6
612.127	658.4
612.539	667
612.95	667.4
613.362	641
613.774	649.2
614.186	659.4
614.599	657
615.011	670.4
615.423	667.8
615.835	662.6
616.248	657
616.66	670.6
617.073	652.8
617.485	658.4
617.898	669.4
618.311	659.2
618.723	667.6
619.136	697.2
619.549	677.6
619.962	690.2
620.375	663.6
620.788	668.2
621.201	644.8
621.614	679
622.028	663
622.441	662.4
622.854	673.2
623.268	656.4
623.681	670.2
624.095	656.6
624.509	671
624.922	672
625.336	657.6
625.728	657.8
626.142	660.8
626.556	680.6
626.97	668.4
627.384	655.6
627.799	658.6
628.213	680.8
628.627	659.2
629.041	653.4
629.456	657.6
629.87	667.8
630.285	657.6
630.699	661.8
631.093	662.4
631.507	665.2
631.922	662.6
632.337	673
632.752	666.6
633.167	671.2
633.582	659.8
633.997	660.4
634.412	658
634.806	661.6
635.221	647.6
635.637	666.4
636.052	648
636.468	661.8
636.883	684.4
637.299	663
637.715	648.6
638.109	656.2
638.525	648
638.941	677
639.357	666.2
639.773	667.8
640.189	654.4
640.584	657.8
641	655
641.416	646.4
641.832	654.6
642.249	653.8
642.665	656.8
643.06	664.8
643.477	668.6
643.894	644.2
644.31	657.2
644.727	666.6
645.123	652.8
645.54	661.4
645.957	666.4
646.374	683.2
646.77	669.2
647.187	695
647.604	660.2
648.021	643
648.439	651.8
648.835	657.4
649.252	661.6
649.67	652.8
650.088	660
650.484	659.4
650.902	669.2
651.32	669.6
651.738	660.6
652.134	663.4
652.552	674.2
652.971	668.8
653.389	654.2
653.786	675.2
654.204	685.8
654.622	654.4
655.019	662.4
655.438	665.8
655.857	662
656.275	670
656.673	655.8
657.091	740.6
657.51	653.8
657.908	669.6
658.327	682.4
658.746	652.2
659.144	664.6
659.563	681.6
659.982	666
660.38	658.2
660.8	662
661.219	668.4
661.617	661
662.037	665
662.457	676.8
662.855	650.2
663.275	699.2
663.695	654
664.094	653
664.514	661.8
664.934	651
665.333	679.8
665.753	651
666.152	646.6
666.572	647.6
666.993	673.4
667.392	651
667.812	651.4
668.212	658.6
668.632	674.8
669.053	662.8
669.453	656.8
669.874	657.8
670.273	671.4
670.694	647.6
671.116	675
671.515	676
671.937	656
672.337	653.6
672.758	645.6
673.158	664.8
673.58	647.4
673.98	655.4
674.402	662
674.824	653.8
675.224	652.8
675.646	649.2
676.047	648.6
676.469	659.2
676.869	662
677.292	660
677.693	646.8
678.115	654.4
678.516	662
678.939	663.8
679.34	655.4
679.762	671
680.164	671.2
680.586	644.8
680.988	658.4
681.411	688.4
681.812	651.4
682.236	651.6
682.637	649.6
683.061	653.6
683.462	654
683.864	644.6
684.288	663.6
684.69	648.6
685.114	662.8
685.516	666.8
685.94	654
686.342	669.4
686.766	647
687.168	653.2
687.571	685.6
687.995	658.8
688.398	645
688.822	653
689.225	672.4
689.628	679.8
690.052	653
690.456	668.2
690.88	656.6
691.284	646.8
691.687	665.8
692.112	646.6
692.515	653.8
692.919	665.2
693.344	654
693.747	650.8
694.173	646.6
694.577	671.6
694.98	666.2
695.406	643.8
695.81	661.2
696.214	665.4
696.64	655
697.044	658
697.448	663.2
697.874	649.8
698.279	655.6
698.684	650.6
699.11	652.8
699.514	656
699.919	654.4
700.324	653.6
700.75	659.8
701.156	653.2
701.561	676
701.987	655.6
702.393	665.8
702.798	673
703.203	658.6
703.63	650
704.036	653.6
704.442	654.2
704.847	653.8
705.274	656.4
705.68	654.6
706.086	663.2
706.492	648.2
706.92	658.8
707.326	668.8
707.732	655.2
708.139	652.8
708.545	653.6
708.973	652.2
709.38	660.6
709.786	641.4
710.193	673.8
710.6	657.2
711.028	657.4
711.435	657.8
711.842	661.2
712.249	650.8
712.656	651.8
713.064	665
713.492	660.8
713.9	657.4
714.307	658.6
714.715	651.8
715.123	669.8
715.53	658
715.938	668.2
716.367	664.2
716.775	657.2
717.184	648.6
717.592	655.6
718	666.6
718.408	700.4
718.816	702
719.225	660.8
719.633	653.4
720.042	654.6
720.472	657.4
720.881	692.6
721.29	671.6
721.699	649.6
722.108	657.4
722.517	660.8
722.926	653
723.335	665.6
723.744	657.6
724.154	662.6
724.563	658
724.973	659.4
725.382	651.8
725.792	654.2
726.202	648.6
726.612	689.8
727.022	655.2
727.432	653.2
779.813	657
780.223	702.4
780.634	652.8
781.044	651.2
781.454	648.6
781.865	671
782.276	645
782.686	672.2
783.097	649.8
783.508	655.6
783.919	660
784.33	669.4
784.741	675.8
785.152	651.4
785.563	638.8
785.974	642.8
786.386	661.4
786.776	651.4
787.188	664.8
787.599	641.8
788.011	667
788.423	658.4
788.835	651.2
789.247	642.2
789.659	645.8
790.071	658
790.483	709
790.874	654.4
791.286	667
791.699	651.2
792.111	656.2
792.524	663.6
792.937	656.4
793.349	633.4
793.741	657.8
794.154	646
794.567	674.4
794.98	652.4
795.393	643
795.785	671
796.198	643
796.612	648.6
797.026	651.4
797.439	637.8
797.831	648.6
798.245	646
798.659	662
799.073	654.8
799.487	644.8
799.88	649
800.294	647
800.708	661
801.123	652.6
801.516	678
801.93	639.2
802.345	644
802.76	649.8
803.153	671.8
803.568	668.8
803.983	670.6
804.377	661.8
804.792	639
805.207	637.2
805.601	650.8
806.016	690.4
806.432	650.2
806.826	687.4
807.242	671.6
807.658	654.6
808.052	649.8
808.468	660.8
808.884	656.8
809.279	660.2
809.695	675
810.111	672.8
810.506	653.6
810.922	682.6
811.339	641.2
811.734	667.4
812.151	657
812.546	644
812.963	656.2
813.38	650.4
813.776	656.8
814.193	684
814.589	643.2
815.006	656
815.402	643.8
815.82	650.6
816.237	650.2
816.633	665.6
817.051	648
817.448	654.6
817.866	644.6
818.262	679.6
818.68	647
819.077	650.2
819.495	648.8
819.892	704.4
820.311	643.6
820.708	646.6
821.127	646.2
821.524	663.6
821.943	657.6
822.34	675.8
822.759	662.2
823.157	653
823.576	668.4
823.974	661.2
824.393	792.2
824.791	646.2
825.189	649
825.609	643.2
826.007	645.2
826.427	637.4
826.826	650.2
827.246	662.2
827.644	644.4
828.043	665.6
828.463	644
828.862	657.8
829.261	660
829.682	640.6
830.081	662.8
830.502	650.8
830.901	658
831.301	651.6
831.722	645.6
832.121	646.2
832.521	642.8
832.943	646.6
833.342	640.6
833.742	638.4
834.164	644.8
834.564	640
834.965	649.6
835.386	655.8
835.787	649.2
836.188	648.6
836.588	648.2
837.01	648.6
837.411	652
837.812	672.4
838.213	646.8
838.636	658.8
839.037	724.8
839.438	655
839.84	658
840.263	657
840.664	657
841.066	647
841.468	659.2
841.891	649.8
842.293	665.2
842.695	657
843.098	658.6
843.5	650.8
843.902	656.6
844.326	658.8
844.729	652.6
845.131	668.8
845.534	659.6
845.937	663.6
846.34	674.6
846.764	643.2
847.167	658.4
847.571	643.8
847.974	653.6
848.377	656.8
848.781	712.4
849.184	670.6
849.588	653
849.992	649.8
850.396	656
850.821	671.6
851.225	657.4
851.63	645.8
852.034	670
852.438	646.2
852.843	788.4
853.247	649
853.652	643.8
854.057	667.8
854.462	649
854.867	645.2
855.272	691.6
855.677	653
856.082	638.4
856.487	644.8
856.893	662.4
857.298	654.4
857.704	651.6
858.11	664.6
858.516	659
858.922	661.8
859.328	657.8
859.734	652.6
860.14	655.2
860.525	647.8
860.931	645.8
861.338	649.6
861.745	665.8
862.151	656.8
862.558	652.6
862.965	649.8
863.372	648.6
863.779	643.2
864.186	669.2
864.572	651
864.98	668.4
865.387	689.6
865.795	646.4
866.203	663.8
866.61	645.2
867.018	669.2
867.405	657.8
867.813	651.6
868.221	651.2
868.63	644
869.038	655
869.425	698.2
869.834	658
870.243	649.4
870.652	638.6
871.039	654
871.448	650.2
871.857	657.6
872.266	656
872.654	648.8
873.064	654.4
873.473	668.2
873.883	650.2
874.271	651.8
874.681	665.6
875.091	634
875.48	659
875.89	682.4
876.3	653.6
876.689	639.8
877.1	655.6
877.51	652.4
877.9	682.2
878.31	645.4
878.721	684.8
879.111	662.8
879.522	641.8
879.933	643.6
880.323	642.8
880.734	641.2
881.125	651.6
881.536	649
881.948	646.4
882.338	652.4
882.75	658.2
883.141	641.2
883.553	651.6
883.944	683.2
884.356	662
884.769	648.8
885.16	655.2
885.573	650.8
885.964	638.8
886.377	645.4
886.768	635.2
887.181	649.6
887.573	635.8
887.987	660.6
888.378	667.6
888.792	659.6
889.184	708
889.598	648.4
889.99	655.2
890.383	644.6
890.797	639
891.19	661.8
891.604	655.2
891.997	639
892.411	642.8
892.805	648
893.198	643.8
893.613	628
894.006	650.8
894.421	646.6
894.815	644.6
895.209	647.2
895.624	691.8
896.018	676.2
896.412	647.4
896.828	643.4
897.222	651
897.617	645
898.033	673.2
898.427	656.8
898.822	660.6
899.239	632
899.634	634.6
900.029	669
900.424	639.8
900.841	629.8
901.236	660.8
901.632	653.4
902.027	715
902.445	666.6
902.841	648.4
903.237	655
903.633	665.2
904.05	654.2
904.447	650.4
904.843	655.4
905.24	653.4
905.636	630.6
906.033	647.8
906.451	669.2
906.848	637.2
907.246	642.8
907.643	646.2
908.04	647.2
908.438	666
908.835	654.2
909.254	648.2
909.652	658.8
910.05	650.4
910.448	647.2
910.846	655.8
911.244	636.6
911.643	655.8
912.041	652.4
912.44	671.2
912.839	644.6
913.237	642
913.636	639.4
914.035	662.4
914.434	645
914.834	658.2
915.233	662.6
915.633	642
916.032	645.6
916.432	644
916.832	672.8
917.232	643.8
917.632	640.8
918.032	648.4
918.432	645.4
918.833	642.8
919.233	651.4
919.634	630.8
920.035	662.2
920.436	641
920.837	653.4
921.238	646.6
921.639	642.4
922.019	646.8
922.42	655.8
922.822	652.6
923.224	649.6
923.625	635.2
924.027	644.2
924.429	672.2
924.81	654
925.212	659.2
925.615	661.4
926.017	656.8
926.42	661.6
926.801	655.6
927.204	652.4
927.607	648.8
928.01	669.2
928.413	637.4
928.795	624.4
929.199	642
929.602	648
930.006	647.4
930.388	635
930.792	658.2
931.196	647
931.579	693.4
931.983	630.8
932.388	698.4
932.771	637.2
933.176	631.8
933.58	649.2
933.964	656.8
934.369	624.4
934.774	645.8
935.158	638
935.563	654.6
935.947	651.6
936.353	658.4
936.759	646.6
937.143	652.8
937.549	656.2
937.934	659.4
938.34	666
938.746	640
939.131	648.4
939.538	641
939.923	643.8
940.33	639
940.716	650.2
941.123	650.8
941.508	662.2
941.916	668
942.302	649
942.709	628.6
943.096	631
943.503	655.4
943.89	648.8
944.298	644.6
944.685	686.2
945.072	649.8
945.48	664.6
945.867	651.6
946.276	646.8
946.663	673.8
947.051	659.6
947.46	657.6
947.848	654.2
948.257	651.8
948.645	649.8
949.033	654.8
949.443	640.8
949.831	695.8
950.22	642.2
950.63	653.6
951.018	684
951.407	645.2
951.796	636.8
952.207	659.6
952.596	653.2
952.985	641.8
953.375	691.8
953.786	652
954.176	644
954.566	654.6
954.956	644.8
955.367	645
955.758	671.8
956.148	645
956.539	661.4
956.929	632
957.341	635.6
957.732	646.8
958.123	662.6
958.515	639
958.906	650
959.297	643.8
959.689	646.6
960.102	640.4
960.494	651.8
960.886	645.6
961.278	642.2
961.67	669.8
962.062	682.4
962.455	643
962.847	639.4
963.24	646.2
963.633	648.6
964.026	646.4
964.419	649.8
964.812	663
965.206	651.4
965.599	650
965.993	648.8
966.386	646
966.78	662.6
967.174	666.4
967.569	640.4
967.963	639.4
968.357	638.2
968.752	641
969.146	643.8
969.541	644.4
969.936	638.6
970.331	653.2
970.705	657
971.1	646
971.496	657.8
971.892	637.4
972.287	647
972.683	658
973.079	646.8
973.454	660
973.85	643
974.247	657.2
974.643	682.6
975.04	653.6
975.415	639
975.812	643.4
976.209	655.4
976.607	641.2
976.982	662.4
977.38	662.4
977.778	651.2
978.175	639.8
978.552	643
978.95	655.2
979.348	654.4
979.725	698.8
980.123	642.6
980.522	641
980.899	644.4
981.298	649.2
981.697	658.6
982.075	650.4
982.474	646.6
982.852	638.8
983.251	648.6
983.651	643.8
984.029	645.8
984.429	638.8
984.808	636.2
985.208	645.8
985.609	640.6
985.987	629.8
986.388	633.8
986.768	656
987.168	642.8
987.548	653.4
987.949	662.4
988.329	653.4
988.731	625.2
989.111	645.8
989.491	646.8
989.893	647.6
990.273	656.8
990.676	634.2
991.057	637.8
991.459	634.6
991.84	639.6
992.221	639.2
992.624	663.2
993.006	653.8
993.388	657.4
993.791	655
994.173	658.8
994.576	677
994.959	631.8
995.341	645.6
995.724	641.4
996.128	642.6
996.511	645
996.894	641.8
997.298	640.2
997.681	653.2
998.065	642.2
998.448	638.2
998.854	655
999.237	635.4
999.621	668.4
1000.01	666.8
1000.39	648.8
1000.8	638.2
1001.18	650.8
1001.56	650.6
1001.95	654
1002.33	656.6
1002.72	647.8
1003.13	647
1003.51	644
1003.9	643.6
1004.28	662.6
1004.67	645.6
1005.06	649.2
1005.44	678
1005.83	634.6
1006.21	646
1006.6	629
1006.99	655
1007.37	664.6
1007.76	650
1060.12	629.6
1060.51	634.8
1060.89	649
1061.28	649.4
1061.67	653
1062.06	644.2
1062.45	642
1062.83	635.2
1063.22	655
1063.61	691.2
1064	661.4
1064.39	642.4
1064.78	641.6
1065.14	662.4
1065.53	652.8
1065.92	642.4
1066.31	645.8
1066.7	649.6
1067.09	659.2
1067.46	657
1067.85	649.8
1068.24	642.8
1068.63	658.4
1069.02	642
1069.39	654.6
1069.78	638.8
1070.17	638.8
1070.57	641.6
1070.93	645.6
1071.33	635
1071.72	642.2
1072.11	642
1072.48	634.4
1072.87	643.2
1073.26	647
1073.64	639.8
1074.03	637
1074.4	642
1074.79	643
1075.19	640.6
1075.56	647.6
1075.95	642
1076.34	637
1076.72	642.2
1077.11	644.8
1077.48	656.8
1077.88	639.4
1078.25	644.6
1078.64	653.8
1079.02	642.4
1079.41	652
1079.78	646.2
1080.18	639.2
1080.55	713.2
1080.95	638
1081.32	639.2
1081.72	651.8
1082.09	643.4
1082.49	633.8
1082.86	642.8
1083.24	629
1083.63	629.6
1084.01	648
1084.38	646.8
1084.78	641.2
1085.16	642.2
1085.55	660
1085.93	659.4
1086.31	635.6
1086.7	684.4
1087.08	652.4
1087.46	646
1087.83	629
1088.23	652.8
1088.61	644.4
1088.99	641.4
1089.36	650.6
1089.76	650
1090.14	647.4
1090.52	642.4
1090.9	643.2
1091.27	651
1091.67	666.2
1092.05	647.6
1092.43	642.4
1092.81	650.8
1093.19	656.8
1093.57	646.4
1093.95	640
1094.35	661.4
1094.73	651
1095.11	626.4
1095.49	638.2
1095.87	642.4
1096.25	659.8
1096.63	652.8
1097.01	642.4
1097.39	655.8
1097.77	638.8
1098.15	643.4
1098.53	645.6
1098.91	641
1099.29	638.2
1099.68	666
1100.06	655.4
1100.44	643.4
1100.82	650.8
1101.18	642.2
1101.56	640.2
1101.95	637.8
1102.33	645.2
1102.71	642
1103.1	632.8
1103.48	625.4
1103.86	634.6
1104.22	652.4
1104.61	638.8
1104.99	632.2
1105.38	626.8
1105.76	651
1106.12	633.6
1106.51	685.4
1106.89	654.4
1107.26	652.2
1107.64	654.2
1108.03	644
1108.41	648.2
1108.78	639.6
1109.16	651.8
1109.55	653.4
1109.91	630.2
1110.3	628.8
1110.69	656.4
1111.05	637.4
1111.44	634.8
1111.8	639.8
1112.19	650.8
1112.58	650.6
1112.94	636
1113.33	640.8
1113.7	635
1114.09	636.6
1114.45	637
1114.84	641
1115.21	654.6
1115.6	631.4
1115.96	650.6
1116.35	647
1116.72	631.8
1117.11	651.2
1117.48	638.6
1117.85	642.8
1118.24	661.8
1118.6	651.2
1118.99	631.8
1119.36	651.2
1119.73	646.6
1120.12	646
1120.49	640
1120.86	651.8
1121.25	650.6
1121.62	636
1121.99	639.2
1122.38	647.2
1122.76	652
1123.13	636.6
1123.5	648.2
1123.89	658.2
1124.26	629.8
1124.63	642.8
1125	646.2
1125.4	636
1125.77	641.6
1126.14	625
1126.51	649
1126.88	653.2
1127.26	640.6
1127.63	622.4
1128.02	642.2
1128.4	633.4
1128.77	640
1129.14	643.2
1129.52	643.4
1129.89	654.2
1130.26	641.6
1130.64	630.6
1131.01	635.4
