#lambda/nm	C1
208.295	538.8
208.67	488.2
209.045	449.8
209.419	451
209.794	679
210.169	659.2
210.544	811.6
210.919	696.4
211.295	668.2
211.67	682.4
212.045	678.6
212.421	686.4
212.796	717.8
213.172	675.8
213.547	673.8
213.923	677.4
214.299	678.6
214.675	687.8
215.051	692.4
215.427	688.6
215.803	700.6
216.179	684.2
216.555	674.8
216.932	684
217.308	683.8
217.684	689
218.061	686.4
218.438	691.8
218.814	671
219.191	691.4
219.568	670.6
219.945	672.6
220.322	693
220.699	695.8
221.076	690.4
221.453	693
221.83	673
222.208	684.6
222.585	678.2
222.962	684.4
223.34	687.4
223.717	683.8
224.095	690.2
224.473	681
224.851	686
225.229	673.6
225.607	699.6
225.985	674.8
226.363	680
226.741	682.4
227.119	681.4
227.497	703.8
227.876	675.6
228.254	687.6
228.633	683.4
229.011	687
229.39	682.2
229.769	688.6
230.148	694
230.527	706.8
230.905	687
231.284	682.2
231.664	675.6
232.043	693.4
232.422	690.8
232.801	678.8
233.181	688.6
233.56	683.2
233.94	681.8
234.319	666.8
234.699	679.2
235.079	730.4
235.458	729
235.838	705.8
236.218	668.2
236.598	663.4
236.978	673.8
237.358	671.4
237.738	678.8
238.119	693.6
238.499	666.8
238.88	689.2
239.26	697
239.641	664.2
240.021	671.2
240.402	679.2
240.783	673.4
241.163	679
241.544	691.4
241.925	679.4
242.306	697
242.687	678.4
243.069	687.6
243.45	698.2
243.831	673
244.212	681
244.594	720.8
244.975	684.6
245.357	692
245.739	671.8
246.12	682.8
246.502	701
246.884	686.4
247.266	687.6
247.648	685
248.03	710.2
248.412	682.8
248.794	681.8
249.176	679.8
249.559	699.6
249.941	679.8
250.323	675
250.706	677.2
251.089	699.2
251.471	690.8
251.854	679.4
252.237	684.8
252.62	687.8
253.002	682
253.385	679.4
253.769	703.4
254.152	688.8
254.535	689.8
254.918	674.8
255.301	677
255.685	683.4
256.068	670.2
256.452	713.4
256.835	692.6
257.219	683
257.603	701.4
257.986	673.6
258.37	691.6
258.754	669.2
259.138	693
259.522	696.6
259.906	678.8
260.29	694
260.675	681
261.059	687.2
261.443	678
261.828	697
262.212	688
262.597	672.8
262.981	676.8
263.366	692.4
263.751	680.2
264.136	680.6
264.521	689.8
264.906	680
265.291	701
265.676	677.6
266.061	694.6
266.446	705.6
266.831	683
267.217	701.6
267.602	683.8
267.987	677
268.373	672.2
268.759	693.4
269.144	691.6
269.53	693.8
269.916	672.2
270.302	681.2
270.688	698.8
271.074	685.6
271.46	700.4
271.846	728
272.232	683
272.618	681.4
273.004	687.8
273.391	701
273.777	701
274.164	692
274.55	706
274.937	694.6
275.324	675.4
275.71	690.4
276.097	689.2
276.484	675.4
276.871	685
277.258	693.6
277.645	664.8
278.032	686
278.419	683
278.807	687.2
279.194	678.8
279.581	676.4
279.969	688.4
280.356	680.8
280.744	688
281.131	714.2
281.519	693.8
281.907	670.6
282.295	685.6
282.682	700.8
283.07	690.8
283.458	698.8
283.846	698.2
284.235	704.4
284.623	692
285.011	675.6
285.399	687.4
285.788	678
286.176	674.6
286.565	694.4
286.953	678
287.342	688
287.731	670.2
288.119	686
288.508	687
288.897	685.6
289.286	668.6
289.675	687
290.064	694.4
290.453	683.2
290.821	681.4
291.21	709.4
291.599	678.2
291.989	689.4
292.378	698
292.768	703
293.157	696.6
293.547	700.2
293.936	681.2
294.326	682.4
294.716	692
295.106	686.8
295.496	695
295.886	705
296.276	682.2
296.666	673
297.056	674.8
297.446	665
297.836	711.6
298.227	694.8
298.617	685.4
299.008	703.6
299.398	680.8
299.789	690.4
300.179	699.2
300.57	699.8
300.961	676.4
301.352	681.8
301.742	694.4
302.133	693.2
302.524	680.2
302.915	696
303.307	663.8
303.698	694.6
304.089	689.6
304.48	681.8
304.872	688.4
305.263	678.2
305.655	677.4
306.046	686.6
306.438	688.4
306.829	684.2
307.221	699.4
307.613	692
308.005	689.6
308.397	698.2
308.789	707.2
309.181	711.6
309.573	703.8
309.965	704
310.357	686.2
310.749	700.6
311.142	678
311.534	680.2
311.926	691.6
312.319	695.2
312.711	681
313.104	709.2
313.497	685
313.889	729.8
314.282	702.2
314.675	712
315.068	683.8
315.461	692.4
315.854	713
316.247	696.6
316.64	682
317.033	686.4
317.405	690.4
317.798	687.8
318.192	694
318.585	682.6
318.979	698.2
319.372	677.8
319.766	692
320.16	702.8
320.553	707
320.947	721.4
321.341	682.6
321.735	679.6
322.129	668
322.523	719.6
322.917	682
323.311	703.2
323.705	688
324.099	694
324.494	701.8
324.888	695
325.282	680
325.677	705
326.071	694
326.466	703
326.861	702
327.255	706.6
327.65	709.8
328.045	709.2
328.44	698.2
328.835	691.6
329.23	682.8
329.625	723.2
330.02	682.6
330.415	717.4
330.81	692.6
331.206	685.8
331.601	685.6
331.996	694.6
332.37	710
332.766	673.8
333.161	718.2
333.557	680
333.953	698.6
334.348	1121.8
334.744	689
335.14	692.8
335.536	687.6
335.932	708.6
336.328	688.8
336.724	700.8
337.12	684
337.516	693.2
337.913	679.2
338.309	704.2
338.705	693
339.102	692.2
339.498	676.8
339.895	700.8
340.291	680.4
340.688	698.6
341.085	687
341.481	680.4
341.878	694.8
342.275	718.4
342.672	676.6
343.069	688.6
343.466	671.2
343.842	683.4
344.239	681.2
344.636	679.4
345.033	670.8
345.431	680.6
345.828	688.4
346.225	671.4
346.623	723.6
347.02	686.4
347.418	698.8
347.816	703.2
348.213	677.4
348.611	691.2
349.009	671
349.407	693.6
349.805	672
350.203	669
350.601	696.6
350.999	685
351.397	744.6
351.795	684.2
352.193	693.2
352.57	692.2
352.969	701.4
353.367	673.2
353.766	678.2
354.164	678.4
354.563	692.4
354.961	688.2
355.36	686
355.759	682
356.158	676.2
356.557	673.4
356.956	678.4
357.355	670.8
357.754	693.6
358.153	697.6
358.552	711.8
358.951	684.2
359.35	693.8
359.75	676.6
360.149	682.8
360.527	663.8
360.926	668.4
361.326	685.6
361.726	678.6
362.125	673.6
362.525	692.2
362.925	684.2
363.325	682.4
363.724	684.8
364.124	682.6
364.524	675
364.924	687.4
365.324	691.2
365.725	663.2
366.125	689.6
366.525	682.2
366.904	672
367.304	666.6
367.705	709.4
368.105	702
368.506	679
368.906	679.6
369.307	682.2
369.708	685.4
370.108	671
370.509	698.4
370.91	678.8
371.311	689.8
371.712	677.6
372.113	685.6
372.514	665.2
372.894	681.2
373.295	684.4
373.696	688
374.097	685
374.499	719
374.9	685.8
375.301	678.6
375.703	684
376.105	671
376.506	685.6
376.908	684.2
377.309	684.6
377.711	684
378.113	671.6
378.493	688.2
378.895	675.8
379.297	696.4
379.699	677.2
380.102	680.2
380.504	683
380.906	675.6
381.308	703.8
381.71	677.2
382.113	690.2
382.515	679.6
382.918	681.4
383.299	687.6
383.701	697.4
384.104	690.8
384.507	656.6
384.909	672.4
385.312	669
385.715	670.4
386.118	682.6
386.521	665.2
386.924	697.2
387.327	671.8
387.709	668.8
388.112	665.4
388.515	683.4
388.918	683
389.322	691
389.725	687.4
390.129	709.6
390.532	683.8
390.936	677.4
391.339	678.6
391.743	688.8
392.125	682
392.529	690.2
392.933	712.2
393.337	691.4
393.74	689
394.144	676.6
394.548	684
394.953	691.2
395.357	701.4
395.761	685.6
396.144	688
396.548	688
396.952	689.4
397.357	689
397.761	676.2
398.166	691.2
398.57	689.2
398.975	674.8
399.379	685
399.763	743.8
400.168	689
400.572	678
400.977	675.4
401.382	704
401.787	703.6
402.192	705.2
402.597	701.4
403.002	669.8
403.386	702.6
403.791	703.4
404.197	683.4
404.602	692
405.007	678.4
405.413	682.8
405.818	682
406.224	670.2
406.608	686.6
407.014	674.8
407.42	704.6
407.825	670.2
408.231	683.2
408.637	683.6
409.043	696
409.449	675.6
409.834	671.4
410.24	680.2
410.646	687.2
411.052	684.8
411.458	685.2
411.865	688.2
412.271	692
412.677	672
413.062	669.8
413.469	666.4
413.875	713
414.282	697.4
414.689	685.6
415.095	690
415.502	677.4
415.888	680
416.294	661
416.701	733.2
417.108	672.4
417.515	694.6
417.923	680.2
418.33	710.8
418.715	686
419.123	679
419.53	682.6
419.937	689.8
420.345	696.8
420.752	683
421.16	695.8
421.546	679.6
421.953	697.8
422.361	674
422.769	689
423.177	678.2
423.585	705
423.992	706
424.379	696.2
424.787	698.6
425.195	706.4
425.603	687.4
426.011	702.6
426.419	706.4
426.806	680.6
427.214	689.8
427.623	697.8
428.031	703.8
428.44	685.8
428.848	700.8
429.235	705.4
429.644	692.8
430.053	695.2
430.461	712.6
430.87	730.8
431.279	711.2
431.666	697.8
432.075	706.8
432.484	718.2
432.893	711.4
433.302	745
433.711	787
434.099	739.4
434.508	733
434.918	735
435.327	757.8
435.737	753.4
436.125	756.8
436.534	773
436.944	783.4
437.353	786.8
437.763	804
438.173	784.4
438.561	812.8
438.971	788
439.381	806.8
439.791	823.8
440.201	804.6
440.589	829.2
440.999	845.6
441.409	834.8
441.819	820.6
442.23	859.8
442.619	858.8
443.029	849.6
443.439	863.4
443.85	881.6
444.26	889.6
444.649	868.8
445.06	878
445.471	879.4
445.881	879.2
446.292	900
446.682	917.8
447.092	872.6
447.503	951.8
447.914	886.4
448.325	897.4
448.715	900.6
449.126	893.8
449.537	893
449.948	903.6
450.338	909.8
450.75	909
451.161	910.6
451.572	926
451.984	906.6
452.374	898.4
452.786	908.2
453.197	914.8
453.609	923.2
453.999	907.6
454.411	911
454.823	938.4
455.235	920.8
455.647	921.4
456.037	928.2
456.449	903
456.862	928.6
457.274	914.6
457.665	910
458.077	929.2
458.489	950.2
458.902	918.6
459.293	941.6
459.705	935.6
460.118	917.4
460.53	932.6
460.921	934.8
461.334	938.8
461.747	943.2
462.16	951.4
462.551	961.6
462.964	949.6
463.377	931.2
463.79	931.6
464.182	944.2
464.595	925.2
465.008	929.2
465.421	956.2
465.813	939.6
466.226	951
466.64	944.2
467.053	999.2
467.445	946.4
467.859	962.4
468.272	952.8
468.686	947
469.078	934.8
469.492	934.6
469.906	948.8
470.298	946.6
470.712	943
471.126	1004.8
471.54	937
471.933	939.8
472.347	940.4
472.761	930
473.175	938.8
473.568	932.8
473.982	931.2
474.397	936.6
474.79	936.4
475.204	937.2
475.619	946.2
476.033	930.2
476.426	922.4
476.841	926.6
477.256	969.8
477.649	929
478.064	919.4
478.479	924.8
478.872	918
479.287	908.6
479.702	927.6
480.118	924.8
480.511	918.6
480.927	913.8
481.342	915.4
481.736	918.4
482.151	921.4
482.566	934.2
482.96	913.6
483.376	927.4
483.792	913.8
484.186	915.2
484.602	912.6
485.017	920.4
485.412	915.2
485.827	909
486.243	906.4
486.638	934
487.054	917.2
487.47	923.2
487.865	904
488.281	900.8
488.697	906.8
489.092	890.4
489.508	904.8
489.925	907.6
490.32	879.2
490.736	903.6
491.153	884.2
491.548	898.8
491.964	906
492.381	878
492.776	881.4
493.193	886.2
493.61	896.2
494.006	890.4
494.422	895
494.84	870.8
495.235	899.8
495.652	870
496.069	878.8
496.465	870.2
496.883	869.4
497.3	918
497.696	875.8
498.113	874.4
498.509	867
498.927	854.2
499.344	843.8
499.741	849.4
500.158	865.8
500.576	871.4
500.973	865.6
501.39	849.8
501.787	839.6
502.205	856
502.623	842.4
503.02	823.4
503.438	837.6
503.856	835.2
504.253	842.4
504.671	847
505.068	828.2
505.486	825.2
505.905	853.8
506.302	838.4
506.72	850.2
507.118	827.2
507.536	823.4
507.955	825.4
508.352	836
508.771	827.2
509.169	828
509.587	818
510.006	823.2
510.404	807.4
510.823	814.6
511.221	806.2
511.64	809.8
512.038	831.8
512.457	818.4
512.877	808.2
513.275	801.2
513.694	808.6
514.092	803.8
514.512	804.6
514.91	792
515.33	800
515.749	799.6
516.148	800.6
516.568	796.8
516.966	795.4
517.386	783.6
517.785	795.4
518.205	780.4
518.603	789.8
519.024	781.6
519.444	791
519.843	799.8
520.263	798.6
520.662	785.8
521.082	792.4
521.481	780.6
521.902	768.2
522.301	778.6
522.722	787.2
523.121	774.6
523.542	770
523.963	781.8
524.362	787.6
524.783	788.2
525.183	776.6
525.604	779
526.003	762.2
526.425	761
526.824	781.8
527.246	782.2
527.646	774.6
528.067	761.4
528.467	762
528.888	763.2
529.289	757.4
529.71	760.6
530.11	758
530.532	751.4
530.932	748.4
531.354	748.8
531.755	801.2
532.176	752.6
532.577	752
532.999	757.6
533.4	753.4
533.822	756.8
534.223	759.8
534.645	749
535.046	736.4
535.468	753.8
535.869	760.8
536.292	742.2
536.693	798
537.115	744.4
537.516	735.8
537.939	739
538.34	757.2
538.742	758.4
539.165	743.4
539.566	745.6
539.989	739.6
540.391	734.2
540.814	740.2
541.216	735.2
541.639	742.6
542.041	752.8
542.464	737.2
542.866	727.2
543.268	730
543.691	740
544.093	740.4
544.517	754.2
544.919	723.8
545.343	764
545.745	725.6
546.147	725
546.571	728.4
546.974	717.4
547.398	726.4
547.8	732.6
548.224	714.2
548.627	721.6
549.03	726.4
549.454	714.4
549.857	712.4
550.281	707.4
550.684	719.2
551.087	731.2
551.512	735.8
551.915	725
552.34	708
552.743	712
553.146	716.4
553.571	722
553.975	734.8
554.399	708
554.803	775
555.207	710
555.632	719
556.036	713
556.461	712.6
556.865	717
557.268	707.6
557.694	704
558.098	715.2
558.502	711.6
558.927	706.2
559.332	709.8
559.736	707
560.162	714.6
560.566	709.6
560.992	709.6
561.396	707.4
561.801	705.2
562.227	706
562.631	696.8
563.036	700.8
563.462	709.2
563.867	708.6
564.272	685.8
564.698	699
565.103	695.2
565.508	728
565.935	708.4
566.34	708.2
566.745	719
567.172	690.6
567.577	720
567.982	708.2
568.409	700.6
568.815	692.6
569.22	699.2
569.626	718.2
570.053	681.4
570.459	697
570.865	704.2
571.292	698.8
571.698	697
572.104	677.6
572.531	696.6
572.937	699.2
573.343	688.4
573.75	694
574.177	699.6
574.583	707.2
574.99	694.4
575.396	702.6
575.824	692.6
576.231	694.6
576.637	679.4
577.065	734.4
577.472	688.8
577.879	692.8
578.286	712.2
578.714	683
579.121	689.8
579.528	695.6
579.935	696
580.364	689
580.771	664.8
581.178	675.4
581.585	687.4
582.014	698.4
582.421	680.8
582.829	676.4
583.236	695.8
583.644	683.6
584.073	675.8
584.481	682.8
584.889	677
585.296	694.4
585.726	693.4
586.134	682.6
586.542	678
586.95	708.2
587.358	671.8
587.787	690.4
588.196	677.6
588.604	673.2
589.012	681.2
589.421	666
589.851	665.4
590.259	680.8
590.668	675.8
591.076	721.4
591.485	671.8
591.894	677
592.324	687.6
592.733	692.8
593.142	662
593.551	671.4
593.96	679.6
594.369	665.8
594.8	675.2
595.209	680.2
595.618	656
596.028	674.4
596.437	668.2
596.847	678
597.256	682
597.687	674.8
598.097	678.6
598.507	665.8
598.917	679.6
599.327	684.8
599.736	676.8
600.146	692.6
600.556	680.2
600.988	689.6
601.398	671.6
601.808	682
602.219	660
602.629	672
603.039	673
603.45	705
603.86	670.4
604.271	692
604.703	671.2
605.114	672.4
605.525	665
605.935	684.8
606.346	698.8
606.757	676.2
607.168	672.2
607.579	669
607.99	671.6
608.402	666.6
608.813	680
609.224	666.4
609.636	666.6
610.047	662.2
610.48	668.4
610.892	679
611.303	670
611.715	664.6
612.127	657.8
612.539	659.4
612.95	666.6
613.362	659.8
613.774	661.4
614.186	666.6
614.599	667.4
615.011	687.2
615.423	666.8
615.835	666.8
616.248	647.2
616.66	667.8
617.073	652
617.485	668
617.898	671.6
618.311	667.4
618.723	663
619.136	691.8
619.549	678.6
619.962	693.8
620.375	660
620.788	665.6
621.201	662.8
621.614	667.8
622.028	664.2
622.441	673.2
622.854	679.8
623.268	657
623.681	677.6
624.095	666.2
624.509	675.2
624.922	673.8
625.336	652.2
625.728	662.8
626.142	681
626.556	693.2
626.97	685.8
627.384	665.8
627.799	671.6
628.213	679.8
628.627	668.2
629.041	663.2
629.456	659.6
629.87	669.8
630.285	679.6
630.699	673.4
631.093	665.8
631.507	672.4
631.922	671
632.337	678.8
632.752	654
633.167	667
633.582	659.2
633.997	657.8
634.412	652.6
634.806	667
635.221	649.2
635.637	679.6
636.052	647.4
636.468	665.2
636.883	685.6
637.299	661.8
637.715	650.8
638.109	671
638.525	643.8
638.941	680.6
639.357	671.8
639.773	671.4
640.189	656.4
640.584	663.2
641	664.2
641.416	656.2
641.832	668.8
642.249	665
642.665	656.6
643.06	680.6
643.477	674.4
643.894	639.8
644.31	661.6
644.727	667.6
645.123	663.2
645.54	659.2
645.957	672.8
646.374	684
646.77	668.6
647.187	694.8
647.604	663.6
648.021	646
648.439	648.6
648.835	670
649.252	663.6
649.67	660.6
650.088	659
650.484	661
650.902	670
651.32	673.8
651.738	654.2
652.134	665.6
652.552	680.6
652.971	670.2
653.389	658.8
653.786	676.6
654.204	691.8
654.622	655
655.019	671.2
655.438	665.8
655.857	665.6
656.275	662
656.673	648.8
657.091	747.6
657.51	658.4
657.908	669.8
658.327	675.2
658.746	653.4
659.144	666.4
659.563	675.6
659.982	664.4
660.38	658
660.8	663.4
661.219	670.8
661.617	674
662.037	660.6
662.457	677
662.855	643
663.275	701.2
663.695	670
664.094	664.6
664.514	665.8
664.934	646
665.333	663.6
665.753	646.8
666.152	655.4
666.572	654.2
666.993	676.8
667.392	658
667.812	655.2
668.212	652.6
668.632	668.8
669.053	663.8
669.453	667.6
669.874	665.8
670.273	664.2
670.694	650.4
671.116	673.2
671.515	667.6
671.937	662.4
672.337	653.8
672.758	654.8
673.158	666.4
673.58	651
673.98	661.8
674.402	666
674.824	658.8
675.224	657.4
675.646	643.2
676.047	658.6
676.469	661
676.869	664
677.292	663
677.693	658.6
678.115	657.4
678.516	659.4
678.939	663.4
679.34	664.4
679.762	675.2
680.164	675.6
680.586	651.4
680.988	666.6
681.411	694.8
681.812	666.6
682.236	651
682.637	650.2
683.061	648
683.462	660.2
683.864	659
684.288	662.6
684.69	643.6
685.114	665.2
685.516	667.8
685.94	657
686.342	670.8
686.766	651.4
687.168	659.4
687.571	678.4
687.995	662.4
688.398	646
688.822	656
689.225	688.2
689.628	677
690.052	655.8
690.456	666.6
690.88	656.4
691.284	643.2
691.687	668.6
692.112	645.2
692.515	650.4
692.919	660.2
693.344	668.6
693.747	667
694.173	651
694.577	669.4
694.98	658
695.406	656.2
695.81	670.2
696.214	659
696.64	666.2
697.044	663
697.448	669.2
697.874	663.8
698.279	662.8
698.684	641.8
699.11	647.2
699.514	650.6
699.919	652.4
700.324	649.2
700.75	661.8
701.156	650
701.561	666.6
701.987	666.2
702.393	666.8
702.798	672.8
703.203	653
703.63	656
704.036	656.2
704.442	654.6
704.847	657.6
705.274	653.6
705.68	668.6
706.086	659
706.492	650
706.92	660.4
707.326	669.6
707.732	647
708.139	645.2
708.545	653.2
708.973	646.4
709.38	659.6
709.786	649.8
710.193	669.4
710.6	660.8
711.028	651.2
711.435	661
711.842	653.6
712.249	653
712.656	647.2
713.064	669.2
713.492	644.4
713.9	650.2
714.307	660.4
714.715	659.6
715.123	656.8
715.53	659.8
715.938	662.6
716.367	652.6
716.775	651
717.184	643
717.592	649.8
718	664.2
718.408	690.8
718.816	704.2
719.225	660.4
719.633	658.6
720.042	651
720.472	649.8
720.881	679.8
721.29	654.4
721.699	646.6
722.108	660.6
722.517	660
722.926	656
723.335	665.2
723.744	660
724.154	657.4
724.563	657.2
724.973	655.6
725.382	656
725.792	645.8
726.202	650.8
726.612	686.4
727.022	651.8
727.432	656.4
779.813	650.2
780.223	704.8
780.634	650.8
781.044	652.6
781.454	651
781.865	670.4
782.276	643.8
782.686	666.2
783.097	652.2
783.508	658.2
783.919	663.4
784.33	674.6
784.741	676
785.152	651.4
785.563	625
785.974	649.6
786.386	671
786.776	656
787.188	648
787.599	644
788.011	660.4
788.423	655.4
788.835	650.2
789.247	638.6
789.659	650.2
790.071	652.6
790.483	705
790.874	652.8
791.286	659.2
791.699	653.6
792.111	655
792.524	660.4
792.937	657.8
793.349	652.8
793.741	643.2
794.154	653.6
794.567	673.8
794.98	653.4
795.393	639.2
795.785	672.4
796.198	647.8
796.612	660.2
797.026	654
797.439	637.4
797.831	652.2
798.245	645
798.659	650.8
799.073	654.8
799.487	656.8
799.88	652.6
800.294	658
800.708	656.4
801.123	669
801.516	673.8
801.93	640.8
802.345	636.2
802.76	650.2
803.153	662.2
803.568	670.8
803.983	670.4
804.377	670.4
804.792	645.6
805.207	637
805.601	653.2
806.016	690.8
806.432	646.2
806.826	700.2
807.242	676.8
807.658	658.8
808.052	653
808.468	647.2
808.884	643.8
809.279	652.8
809.695	680
810.111	676.8
810.506	660.4
810.922	672
811.339	655
811.734	661.6
812.151	645.8
812.546	647.4
812.963	644.8
813.38	658.4
813.776	648.4
814.193	675.6
814.589	649
815.006	654.4
815.402	640.6
815.82	648.8
816.237	656.2
816.633	654
817.051	642
817.448	656
817.866	645
818.262	664.6
818.68	648.8
819.077	640.4
819.495	651.6
819.892	694.8
820.311	644.8
820.708	639.2
821.127	647
821.524	666.4
821.943	655.2
822.34	670.2
822.759	653
823.157	658.4
823.576	679.4
823.974	664.4
824.393	733.8
824.791	654.2
825.189	647.4
825.609	640.8
826.007	659.2
826.427	631.4
826.826	650.2
827.246	662.6
827.644	640.2
828.043	667.2
828.463	653.2
828.862	671.4
829.261	657.2
829.682	644.6
830.081	668.6
830.502	648.2
830.901	656.4
831.301	643.2
831.722	639.8
832.121	651.8
832.521	651.6
832.943	650.4
833.342	654.6
833.742	651.4
834.164	651.6
834.564	634.2
834.965	648.6
835.386	648.8
835.787	652.6
836.188	651.8
836.588	650.8
837.01	657.2
837.411	644.8
837.812	660.4
838.213	656.6
838.636	651
839.037	727.4
839.438	663.4
839.84	656
840.263	668.6
840.664	664.4
841.066	649.2
841.468	665.2
841.891	654.2
842.293	665.2
842.695	662.4
843.098	656.6
843.5	656.4
843.902	653.4
844.326	664.8
844.729	649.8
845.131	664.8
845.534	654.4
845.937	673
846.34	660.6
846.764	642.4
847.167	645.2
847.571	645.2
847.974	652.8
848.377	649.8
848.781	709.8
849.184	658.8
849.588	650.8
849.992	649.6
850.396	651.6
850.821	677.8
851.225	658.4
851.63	646.2
852.034	672.8
852.438	655.4
852.843	806.2
853.247	649.8
853.652	647.8
854.057	682
854.462	662
854.867	656
855.272	689
855.677	658.6
856.082	639.2
856.487	643.4
856.893	659.4
857.298	644.4
857.704	641
858.11	662
858.516	654.6
858.922	643.8
859.328	662.4
859.734	655.2
860.14	657.2
860.525	660.6
860.931	644.4
861.338	652.8
861.745	660.4
862.151	661.8
862.558	651.4
862.965	646.6
863.372	646.8
863.779	651.4
864.186	680
864.572	646.4
864.98	670.2
865.387	680
865.795	648
866.203	656
866.61	648.6
867.018	664.8
867.405	667
867.813	649
868.221	651
868.63	652.4
869.038	659.4
869.425	692.6
869.834	653.8
870.243	652.4
870.652	646.6
871.039	643.8
871.448	650.4
871.857	652.4
872.266	656.8
872.654	654.6
873.064	652.6
873.473	659.4
873.883	641.6
874.271	638.4
874.681	658
875.091	636.6
875.48	652
875.89	665.4
876.3	641.6
876.689	633
877.1	639
877.51	643.8
877.9	677
878.31	654.8
878.721	681
879.111	654.4
879.522	652.6
879.933	640.4
880.323	639
880.734	642.6
881.125	656.8
881.536	647.8
881.948	641.6
882.338	654
882.75	664.4
883.141	653
883.553	662.2
883.944	675.6
884.356	663.8
884.769	646.6
885.16	657
885.573	649.6
885.964	643.2
886.377	645.2
886.768	645.8
887.181	644.8
887.573	651.4
887.987	660
888.378	665
888.792	650.8
889.184	703
889.598	647.6
889.99	651.6
890.383	649.4
890.797	642
891.19	656.8
891.604	636.6
891.997	641.6
892.411	636.2
892.805	631
893.198	645.8
893.613	639
894.006	649
894.421	633.8
894.815	655.4
895.209	638.8
895.624	694.2
896.018	667.8
896.412	640
896.828	648
897.222	652.6
897.617	645.2
898.033	679.6
898.427	651.8
898.822	655.8
899.239	639.6
899.634	635.6
900.029	674
900.424	640.8
900.841	637.2
901.236	663.2
901.632	664.6
902.027	717.2
902.445	666.4
902.841	654.6
903.237	648.4
903.633	664.8
904.05	653.8
904.447	658
904.843	655.4
905.24	655.8
905.636	642.4
906.033	645.4
906.451	666
906.848	637.8
907.246	645.6
907.643	654.2
908.04	646.8
908.438	650.8
908.835	666
909.254	655
909.652	653.6
910.05	647
910.448	642.6
910.846	649.6
911.244	643.8
911.643	650.4
912.041	652.4
912.44	675.2
912.839	649
913.237	645.8
913.636	644.8
914.035	652.4
914.434	645.4
914.834	664.6
915.233	668.4
915.633	647.6
916.032	637
916.432	637.8
916.832	675.6
917.232	649.2
917.632	634.2
918.032	656.2
918.432	643.8
918.833	647
919.233	645.8
919.634	639.2
920.035	651.6
920.436	637.8
920.837	651.8
921.238	638
921.639	648.6
922.019	656.4
922.42	642
922.822	650.4
923.224	643.6
923.625	646.2
924.027	651.2
924.429	674.8
924.81	659
925.212	658.2
925.615	653.2
926.017	645.2
926.42	665.8
926.801	651.6
927.204	655
927.607	656.6
928.01	664.8
928.413	648.8
928.795	631.8
929.199	642
929.602	647
930.006	632.4
930.388	634.4
930.792	659.6
931.196	641.6
931.579	687.6
931.983	635.2
932.388	703.8
932.771	645
933.176	637.8
933.58	651.2
933.964	656.2
934.369	638.4
934.774	658.4
935.158	643.6
935.563	646.6
935.947	642.8
936.353	656
936.759	644.8
937.143	649.4
937.549	655.8
937.934	659
938.34	668.6
938.746	639.4
939.131	649.2
939.538	646.4
939.923	645
940.33	641.6
940.716	649.2
941.123	650.8
941.508	663.8
941.916	667
942.302	655
942.709	644.8
943.096	639.6
943.503	646
943.89	640
944.298	652.8
944.685	681
945.072	650
945.48	660.4
945.867	639.6
946.276	643
946.663	673.8
947.051	670.6
947.46	657
947.848	661.2
948.257	641.4
948.645	643.8
949.033	647.6
949.443	646.8
949.831	684
950.22	640.4
950.63	654.4
951.018	681.6
951.407	641.2
951.796	636.8
952.207	653.2
952.596	661.2
952.985	646.8
953.375	706
953.786	647.2
954.176	642.6
954.566	662.8
954.956	647.2
955.367	650.2
955.758	677
956.148	640
956.539	663.4
956.929	642.8
957.341	631.2
957.732	644.6
958.123	655.2
958.515	642.4
958.906	655.8
959.297	645.8
959.689	643.4
960.102	642.2
960.494	651.8
960.886	647.2
961.278	639
961.67	661.8
962.062	689.4
962.455	650.6
962.847	637.6
963.24	642.6
963.633	645.6
964.026	636.2
964.419	644.6
964.812	655.2
965.206	636.8
965.599	648.6
965.993	646.6
966.386	641.2
966.78	659.4
967.174	661
967.569	641.6
967.963	643.8
968.357	634
968.752	640.2
969.146	647.8
969.541	634
969.936	645
970.331	657.2
970.705	646
971.1	638.2
971.496	659.4
971.892	645
972.287	651
972.683	642.2
973.079	635.8
973.454	660.6
973.85	648.6
974.247	648.8
974.643	669
975.04	642.4
975.415	637.2
975.812	634.4
976.209	643.6
976.607	639
976.982	651.8
977.38	662
977.778	643.2
978.175	644.8
978.552	647.2
978.95	648.2
979.348	656.8
979.725	702.2
980.123	646
980.522	644.6
980.899	643
981.298	650.2
981.697	643.2
982.075	650
982.474	642.6
982.852	653.4
983.251	652.4
983.651	633.8
984.029	644.2
984.429	649.8
984.808	638.2
985.208	643.8
985.609	638.2
985.987	637.8
986.388	633
986.768	655
987.168	652.2
987.548	650.8
987.949	653.8
988.329	650.2
988.731	626.4
989.111	649.6
989.491	633.8
989.893	642.4
990.273	652.2
990.676	635.8
991.057	628.2
991.459	643.2
991.84	637
992.221	635.2
992.624	661
993.006	647.8
993.388	647
993.791	650.8
994.173	649
994.576	681.6
994.959	641.4
995.341	645
995.724	644.6
996.128	637.2
996.511	645.2
996.894	641.6
997.298	640
997.681	647.2
998.065	649
998.448	647.8
998.854	648
999.237	639.4
999.621	658.6
1000.01	673
1000.39	651
1000.8	638
1001.18	654
1001.56	660.2
1001.95	656.2
1002.33	656.2
1002.72	644.8
1003.13	647.6
1003.51	639.2
1003.9	644.2
1004.28	667.8
1004.67	639
1005.06	644
1005.44	674
1005.83	626.2
1006.21	647
1006.6	638.8
1006.99	653
1007.37	658.4
1007.76	653.4
1060.12	643.8
1060.51	635.8
1060.89	661.6
1061.28	657.8
1061.67	657.8
1062.06	656
1062.45	651.4
1062.83	650.8
1063.22	656.4
1063.61	692.2
1064	657.4
1064.39	650
1064.78	654.4
1065.14	663.6
1065.53	657
1065.92	641.8
1066.31	638.8
1066.7	651.4
1067.09	656.6
1067.46	658.8
1067.85	641.4
1068.24	635
1068.63	650.4
1069.02	642
1069.39	645.6
1069.78	642.4
1070.17	630.4
1070.57	631.8
1070.93	644.8
1071.33	640.4
1071.72	641.8
1072.11	639.2
1072.48	642
1072.87	651.2
1073.26	640.2
1073.64	649.4
1074.03	634.6
1074.4	644.2
1074.79	638
1075.19	648.2
1075.56	646.4
1075.95	648
1076.34	643.8
1076.72	644
1077.11	659.2
1077.48	664.6
1077.88	649.8
1078.25	639.2
1078.64	653.8
1079.02	655
1079.41	658.2
1079.78	642.6
1080.18	641.8
1080.55	718.6
1080.95	639.4
1081.32	629.8
1081.72	657.8
1082.09	645.6
1082.49	648.8
1082.86	642.6
1083.24	633
1083.63	640.6
1084.01	647.4
1084.38	655.6
1084.78	632.4
1085.16	647.2
1085.55	656.8
1085.93	656.6
1086.31	639
1086.7	675
1087.08	655.2
1087.46	649.6
1087.83	638
1088.23	657
1088.61	645
1088.99	644.4
1089.36	640.8
1089.76	656.4
1090.14	655.8
1090.52	647.4
1090.9	640.6
1091.27	652.2
1091.67	666.4
1092.05	648.6
1092.43	644.4
1092.81	645.4
1093.19	653.6
1093.57	652.2
1093.95	636.6
1094.35	659.2
1094.73	650.6
1095.11	639.2
1095.49	644.8
1095.87	647.8
1096.25	659.2
1096.63	653.6
1097.01	644.6
1097.39	645.2
1097.77	645.4
1098.15	642.8
1098.53	630.2
1098.91	648
1099.29	657.8
1099.68	668.4
1100.06	656.8
1100.44	654.2
1100.82	653.8
1101.18	649
1101.56	640
1101.95	632.2
1102.33	644.6
1102.71	655
1103.1	633.8
1103.48	635.6
1103.86	634
1104.22	642.6
1104.61	648.4
1104.99	632
1105.38	638.4
1105.76	640
1106.12	642
1106.51	684.8
1106.89	648.4
1107.26	641.4
1107.64	657
1108.03	643
1108.41	639.2
1108.78	641.6
1109.16	645.2
1109.55	650.8
1109.91	632.8
1110.3	626.8
1110.69	659.8
1111.05	641
1111.44	638
1111.8	641.2
1112.19	638.2
1112.58	652.4
1112.94	641.8
1113.33	645.8
1113.7	636
1114.09	633.8
1114.45	635
1114.84	645.6
1115.21	653.6
1115.6	643.4
1115.96	642.2
1116.35	650.2
1116.72	635
1117.11	652.6
1117.48	639.6
1117.85	633.8
1118.24	658.2
1118.6	648.8
1118.99	641.2
1119.36	648.2
1119.73	645.4
1120.12	652.6
1120.49	629.8
1120.86	642.8
1121.25	649.6
1121.62	623
1121.99	633.4
1122.38	644.8
1122.76	631.4
1123.13	635.2
1123.5	637.6
1123.89	650.6
1124.26	627
1124.63	643
1125	637.8
1125.4	629.4
1125.77	636.2
1126.14	625.2
1126.51	639.4
1126.88	641.8
1127.26	633.2
1127.63	634.6
1128.02	640.2
1128.4	631.2
1128.77	628.6
1129.14	650.4
1129.52	633.2
1129.89	645.6
1130.26	635
1130.64	635.2
1131.01	644
