#lambda/nm	C1
208.295	533
208.67	489.2
209.045	446.2
209.419	444.8
209.794	679.8
210.169	670
210.544	806.4
210.919	692.8
211.295	671.2
211.67	684.4
212.045	680.4
212.421	674
212.796	734.2
213.172	678
213.547	677.2
213.923	677.8
214.299	680.2
214.675	689.8
215.051	684.8
215.427	692.8
215.803	702.6
216.179	696.8
216.555	677.8
216.932	690.2
217.308	688.4
217.684	689.8
218.061	693.4
218.438	683.2
218.814	677.4
219.191	695.6
219.568	671.2
219.945	676.8
220.322	692.8
220.699	676.6
221.076	695.8
221.453	686.2
221.83	665.6
222.208	687.4
222.585	684.6
222.962	684.8
223.34	690.4
223.717	691.6
224.095	684
224.473	681.2
224.851	677.8
225.229	664.6
225.607	707
225.985	670.8
226.363	683.6
226.741	682
227.119	672.4
227.497	691
227.876	663.8
228.254	693.2
228.633	687.6
229.011	682
229.39	693.2
229.769	680.2
230.148	691.8
230.527	707.2
230.905	683
231.284	681.2
231.664	673.4
232.043	696.6
232.422	690.4
232.801	670.6
233.181	679.8
233.56	680.4
233.94	677.4
234.319	662.6
234.699	676
235.079	722.8
235.458	733.4
235.838	701.8
236.218	678.6
236.598	670
236.978	680.6
237.358	677.4
237.738	679.8
238.119	690.2
238.499	664.2
238.88	684.4
239.26	686.8
239.641	665.4
240.021	681.8
240.402	688.2
240.783	683.4
241.163	679.4
241.544	683.8
241.925	685.2
242.306	702
242.687	675
243.069	686.8
243.45	692.2
243.831	674.6
244.212	674.6
244.594	724.4
244.975	697.4
245.357	684.8
245.739	672.4
246.12	676.6
246.502	699.6
246.884	678.2
247.266	680.6
247.648	686.8
248.03	706.8
248.412	685.8
248.794	686.4
249.176	673.4
249.559	699.6
249.941	675.2
250.323	673
250.706	678.2
251.089	678.6
251.471	686.6
251.854	680.8
252.237	684.6
252.62	691.2
253.002	687
253.385	687.2
253.769	706.4
254.152	682
254.535	696
254.918	670.6
255.301	675.2
255.685	680.2
256.068	673.4
256.452	707
256.835	692.6
257.219	695.8
257.603	699.2
257.986	675.6
258.37	696.6
258.754	673
259.138	689.4
259.522	694
259.906	676
260.29	688
260.675	687.2
261.059	686.8
261.443	677.4
261.828	685.8
262.212	680
262.597	672
262.981	683.2
263.366	689.6
263.751	688.4
264.136	678.4
264.521	670.2
264.906	676.8
265.291	697.4
265.676	677.6
266.061	686.8
266.446	700.6
266.831	684.6
267.217	703
267.602	687.8
267.987	684
268.373	686.2
268.759	693
269.144	690.6
269.53	682.2
269.916	682
270.302	672.8
270.688	685.6
271.074	680
271.46	700.2
271.846	721.4
272.232	686.4
272.618	682
273.004	683.6
273.391	692.8
273.777	700
274.164	689.6
274.55	700
274.937	696.4
275.324	683
275.71	691.2
276.097	694.2
276.484	680.2
276.871	688.2
277.258	687.4
277.645	670.6
278.032	681.2
278.419	684.2
278.807	687.6
279.194	674
279.581	670.6
279.969	686.4
280.356	687.2
280.744	675.8
281.131	707
281.519	710
281.907	681.2
282.295	683
282.682	701.2
283.07	684.4
283.458	703.8
283.846	698.6
284.235	701.8
284.623	696
285.011	681.8
285.399	692.6
285.788	695.6
286.176	671.4
286.565	703.2
286.953	683.2
287.342	690.4
287.731	675.6
288.119	673.6
288.508	680.2
288.897	690.6
289.286	668
289.675	679.6
290.064	697
290.453	685
290.821	678
291.21	701.6
291.599	686
291.989	678.8
292.378	690.2
292.768	708.4
293.157	692.2
293.547	703
293.936	693.8
294.326	685.6
294.716	692.2
295.106	687.6
295.496	684.2
295.886	697.2
296.276	689.2
296.666	677.4
297.056	678
297.446	682.8
297.836	709
298.227	684.2
298.617	696.2
299.008	706.6
299.398	688
299.789	675
300.179	687.6
300.57	697.6
300.961	674.4
301.352	679.4
301.742	689.4
302.133	682.8
302.524	684.2
302.915	691.8
303.307	680.2
303.698	692.4
304.089	694.6
304.48	682.8
304.872	699.2
305.263	681.4
305.655	678
306.046	691
306.438	691.6
306.829	675.2
307.221	691.8
307.613	692.2
308.005	701.4
308.397	698.6
308.789	711.6
309.181	717.6
309.573	701.4
309.965	702.6
310.357	690.2
310.749	705.6
311.142	678.6
311.534	687.6
311.926	694
312.319	686.6
312.711	672.6
313.104	697.6
313.497	681
313.889	727.4
314.282	704.8
314.675	708.8
315.068	682.8
315.461	688.4
315.854	717.8
316.247	685.6
316.64	689.8
317.033	681.8
317.405	696.4
317.798	684.6
318.192	691.4
318.585	671
318.979	699.6
319.372	679
319.766	688
320.16	699.6
320.553	716.6
320.947	714.2
321.341	689.2
321.735	687.8
322.129	684.6
322.523	715.6
322.917	672.4
323.311	696.2
323.705	691.8
324.099	693.8
324.494	702.4
324.888	710
325.282	674
325.677	701.4
326.071	700.6
326.466	704
326.861	697
327.255	702.6
327.65	704.2
328.045	702
328.44	685.2
328.835	679.6
329.23	673.8
329.625	714.8
330.02	681.6
330.415	714.2
330.81	684.8
331.206	687.2
331.601	678.2
331.996	692.8
332.37	709.8
332.766	676.4
333.161	709.2
333.557	680.8
333.953	688.4
334.348	1123
334.744	692
335.14	680.8
335.536	685.4
335.932	700.8
336.328	675.2
336.724	690.8
337.12	687.8
337.516	690.2
337.913	688.2
338.309	697.2
338.705	685
339.102	694.2
339.498	686.2
339.895	707.4
340.291	678.4
340.688	691.8
341.085	677.2
341.481	683.6
341.878	683.4
342.275	713.2
342.672	676
343.069	681.2
343.466	664.8
343.842	690.2
344.239	681.4
344.636	680.6
345.033	670.2
345.431	685.6
345.828	682.2
346.225	676
346.623	728.4
347.02	686
347.418	695.8
347.816	702.2
348.213	673
348.611	697
349.009	683.4
349.407	707.4
349.805	676.4
350.203	672.8
350.601	697.8
350.999	679.4
351.397	756.4
351.795	691.8
352.193	689.8
352.57	688
352.969	695
353.367	666.2
353.766	674.8
354.164	673.6
354.563	693
354.961	692.2
355.36	680
355.759	675.6
356.158	681.4
356.557	680.6
356.956	668.2
357.355	670.6
357.754	686.2
358.153	687.4
358.552	709
358.951	687.2
359.35	702.8
359.75	674.2
360.149	681.8
360.527	667.8
360.926	670.4
361.326	675.8
361.726	677.2
362.125	672.8
362.525	691.6
362.925	676.8
363.325	687.2
363.724	683.4
364.124	673.4
364.524	673
364.924	677.2
365.324	690.4
365.725	663
366.125	680.4
366.525	681.6
366.904	676.6
367.304	661.8
367.705	706
368.105	687
368.506	673.6
368.906	685.6
369.307	670.4
369.708	687.8
370.108	674.8
370.509	700
370.91	683.4
371.311	680
371.712	688.8
372.113	683
372.514	660.4
372.894	675
373.295	672
373.696	691
374.097	684.6
374.499	714.6
374.9	681
375.301	673
375.703	680
376.105	662.8
376.506	677
376.908	681.2
377.309	673.8
377.711	675.2
378.113	670.8
378.493	683.2
378.895	681
379.297	685.8
379.699	662.6
380.102	680.4
380.504	677.4
380.906	664.8
381.308	703.6
381.71	674.4
382.113	685.8
382.515	683
382.918	679.2
383.299	679.8
383.701	688.2
384.104	678.6
384.507	659.4
384.909	674.2
385.312	669
385.715	666.2
386.118	684.4
386.521	669.4
386.924	699.8
387.327	675.2
387.709	656.2
388.112	658.4
388.515	678.2
388.918	669.2
389.322	688.4
389.725	681
390.129	712.8
390.532	688.2
390.936	679.2
391.339	671.6
391.743	686.2
392.125	666.2
392.529	687.4
392.933	694.8
393.337	691.8
393.74	686
394.144	680.6
394.548	674.8
394.953	679.4
395.357	684.6
395.761	675.6
396.144	670.6
396.548	681.4
396.952	675.2
397.357	686.4
397.761	671.6
398.166	680
398.57	686
398.975	664.2
399.379	681.4
399.763	739.8
400.168	683.6
400.572	679.6
400.977	681.6
401.382	702.8
401.787	683.2
402.192	693.2
402.597	694.6
403.002	662.2
403.386	686.2
403.791	704.2
404.197	672
404.602	679.6
405.007	675.6
405.413	675.2
405.818	681.4
406.224	665.8
406.608	682.4
407.014	674.4
407.42	694
407.825	675.4
408.231	682.2
408.637	682.4
409.043	685.6
409.449	672.2
409.834	666.8
410.24	677
410.646	692.4
411.052	691.6
411.458	683.4
411.865	680.8
412.271	692.2
412.677	668
413.062	689.4
413.469	674.2
413.875	709.4
414.282	698.8
414.689	682.2
415.095	684.2
415.502	667.4
415.888	685.2
416.294	661.4
416.701	720.2
417.108	666.4
417.515	691.4
417.923	667.4
418.33	702.6
418.715	684.4
419.123	673.6
419.53	676.4
419.937	683.6
420.345	693.8
420.752	664.2
421.16	687.8
421.546	681.2
421.953	691.2
422.361	669.4
422.769	671.4
423.177	668.8
423.585	708.8
423.992	709.4
424.379	696.4
424.787	689.8
425.195	699
425.603	689.2
426.011	690.8
426.419	705.4
426.806	675.2
427.214	680.4
427.623	693.6
428.031	703
428.44	688.6
428.848	692.8
429.235	697.8
429.644	692
430.053	687.2
430.461	691.4
430.87	706.2
431.279	693.2
431.666	664.6
432.075	682.8
432.484	694.4
432.893	678.2
433.302	707
433.711	744.6
434.099	691.6
434.508	684.4
434.918	666.4
435.327	686.6
435.737	689.4
436.125	694.8
436.534	694.6
436.944	690.2
437.353	697.4
437.763	718.6
438.173	687.2
438.561	719.4
438.971	679.6
439.381	703.8
439.791	709.4
440.201	682.4
440.589	707.8
440.999	723.2
441.409	722.8
441.819	705
442.23	727.6
442.619	733
443.029	733
443.439	742.2
443.85	747.8
444.26	759.8
444.649	753
445.06	747.8
445.471	744.4
445.881	758.4
446.292	769.2
446.682	777.8
447.092	734.6
447.503	818.8
447.914	765
448.325	765.8
448.715	770.2
449.126	769.2
449.537	784.8
449.948	763.6
450.338	777.4
450.75	790.8
451.161	787.4
451.572	785
451.984	769.2
452.374	762.8
452.786	775.8
453.197	791.8
453.609	800.8
453.999	770.8
454.411	776.6
454.823	800.6
455.235	796
455.647	789.6
456.037	790.2
456.449	784.6
456.862	798.6
457.274	788.2
457.665	790.2
458.077	799.2
458.489	842.6
458.902	800.4
459.293	811
459.705	802.8
460.118	801.6
460.53	804
460.921	806.8
461.334	818.2
461.747	808
462.16	826.8
462.551	841.6
462.964	824.2
463.377	811.4
463.79	822
464.182	826.8
464.595	817.2
465.008	818.4
465.421	840.4
465.813	819.2
466.226	835.4
466.64	829.4
467.053	884.8
467.445	852.6
467.859	854.6
468.272	844.8
468.686	857.6
469.078	832.8
469.492	819.2
469.906	826.8
470.298	846.4
470.712	828.6
471.126	898.6
471.54	828.8
471.933	825.6
472.347	840.6
472.761	839.2
473.175	837.8
473.568	839
473.982	835.2
474.397	845
474.79	835.6
475.204	852
475.619	846.8
476.033	844.8
476.426	837
476.841	824.4
477.256	870
477.649	832.2
478.064	826.8
478.479	835.6
478.872	832.4
479.287	824.4
479.702	833.4
480.118	841.8
480.511	842
480.927	835
481.342	829.2
481.736	832.8
482.151	826.4
482.566	855
482.96	847.2
483.376	851.2
483.792	830.6
484.186	843.8
484.602	835
485.017	842.6
485.412	826.4
485.827	850.4
486.243	838.4
486.638	858
487.054	847
487.47	847.2
487.865	825.6
488.281	837.2
488.697	832.2
489.092	824
489.508	816.2
489.925	833.4
490.32	806
490.736	834.4
491.153	833
491.548	832.4
491.964	840.8
492.381	802.2
492.776	836.6
493.193	825.6
493.61	827.8
494.006	822.8
494.422	831
494.84	804.6
495.235	830.4
495.652	813
496.069	814.4
496.465	799.4
496.883	820
497.3	844.6
497.696	817.8
498.113	814.6
498.509	800
498.927	800.8
499.344	802.8
499.741	791.6
500.158	812.8
500.576	814.6
500.973	809
501.39	800
501.787	793
502.205	808.8
502.623	801.4
503.02	790.4
503.438	792.8
503.856	789.8
504.253	796.2
504.671	795.6
505.068	785.4
505.486	789.4
505.905	809.2
506.302	780
506.72	788.2
507.118	767.4
507.536	791.8
507.955	800.6
508.352	791.8
508.771	790.4
509.169	783
509.587	770
510.006	786.4
510.404	763.6
510.823	774.8
511.221	769
511.64	778.2
512.038	799.4
512.457	771.2
512.877	769.2
513.275	769
513.694	766.4
514.092	764
514.512	772.6
514.91	766
515.33	771
515.749	773.2
516.148	770.8
516.568	769.4
516.966	761.4
517.386	763.6
517.785	771.8
518.205	761.8
518.603	752.2
519.024	757.2
519.444	766.4
519.843	763.4
520.263	773.4
520.662	754.6
521.082	751.2
521.481	749.2
521.902	743.4
522.301	755.8
522.722	759.4
523.121	735.6
523.542	738.8
523.963	750.8
524.362	744
524.783	757
525.183	743.2
525.604	739.4
526.003	742.4
526.425	738.2
526.824	739.4
527.246	742
527.646	749.2
528.067	739.2
528.467	738.8
528.888	744.6
529.289	741
529.71	745.8
530.11	729.4
530.532	730.2
530.932	721.6
531.354	723.2
531.755	772.8
532.176	744.8
532.577	726.4
532.999	730.8
533.4	726.2
533.822	747.4
534.223	735.2
534.645	735.4
535.046	732.8
535.468	732
535.869	734.6
536.292	720.8
536.693	774.6
537.115	736.4
537.516	721.8
537.939	727.8
538.34	734
538.742	728.2
539.165	725.2
539.566	722.4
539.989	720
540.391	727.6
540.814	716.2
541.216	725.6
541.639	719
542.041	731.4
542.464	715.8
542.866	714
543.268	711
543.691	718.2
544.093	732.6
544.517	739.2
544.919	705
545.343	740.4
545.745	705.8
546.147	715.6
546.571	719
546.974	704
547.398	710.2
547.8	724.6
548.224	708.6
548.627	706.6
549.03	719.2
549.454	696.4
549.857	696.8
550.281	703.2
550.684	705.8
551.087	721.2
551.512	712
551.915	722.2
552.34	714.6
552.743	704
553.146	714.6
553.571	708.2
553.975	725.8
554.399	696.6
554.803	757.2
555.207	702
555.632	697.6
556.036	706.6
556.461	697
556.865	705.2
557.268	697.6
557.694	702.2
558.098	717.2
558.502	716
558.927	694.2
559.332	705.6
559.736	689
560.162	708.8
560.566	702.4
560.992	701.8
561.396	691.2
561.801	692.8
562.227	697.6
562.631	683.4
563.036	691.8
563.462	710.6
563.867	702.2
564.272	681.6
564.698	696.6
565.103	683
565.508	722.4
565.935	703
566.34	685.6
566.745	702.6
567.172	693.8
567.577	716.4
567.982	708.6
568.409	702.2
568.815	681.6
569.22	688.2
569.626	701.8
570.053	676
570.459	688.4
570.865	701
571.292	695
571.698	699.4
572.104	668.8
572.531	679.4
572.937	705.8
573.343	683.8
573.75	686
574.177	696.4
574.583	702.8
574.99	687.4
575.396	687.6
575.824	687.8
576.231	688.4
576.637	681.8
577.065	726.2
577.472	677.6
577.879	676.8
578.286	708.2
578.714	673.4
579.121	685.2
579.528	684
579.935	701.6
580.364	681.2
580.771	661.6
581.178	678.6
581.585	689.2
582.014	687.4
582.421	681.2
582.829	675.6
583.236	685.6
583.644	674.4
584.073	675
584.481	684.8
584.889	675.4
585.296	690
585.726	682.2
586.134	669.4
586.542	673.4
586.95	695.4
587.358	667.4
587.787	680.2
588.196	670.2
588.604	684.6
589.012	682.2
589.421	663.4
589.851	665.4
590.259	675.6
590.668	674.8
591.076	719.4
591.485	670.4
591.894	680.4
592.324	694
592.733	692.4
593.142	659.8
593.551	677.2
593.96	678.2
594.369	668.2
594.8	669.6
595.209	674.8
595.618	654.2
596.028	670.2
596.437	658.4
596.847	678.4
597.256	681.6
597.687	671.8
598.097	671
598.507	666.8
598.917	683.4
599.327	678.2
599.736	673
600.146	685.4
600.556	667.6
600.988	684.4
601.398	664.4
601.808	675.2
602.219	663
602.629	674
603.039	679
603.45	700.6
603.86	677.4
604.271	688
604.703	664
605.114	671.6
605.525	671.8
605.935	675.4
606.346	691.6
606.757	677
607.168	673.6
607.579	668.2
607.99	679
608.402	663.6
608.813	677.4
609.224	665
609.636	655.8
610.047	666
610.48	673.2
610.892	674.6
611.303	679.8
611.715	663.6
612.127	653.6
612.539	661.6
612.95	676.6
613.362	653
613.774	653
614.186	655.2
614.599	656.4
615.011	664.8
615.423	668.8
615.835	658.8
616.248	651.4
616.66	671.2
617.073	659.6
617.485	662.4
617.898	676.8
618.311	668.8
618.723	670.8
619.136	695.2
619.549	682.6
619.962	698
620.375	657
620.788	664.2
621.201	659.8
621.614	681.4
622.028	662.8
622.441	671.6
622.854	689
623.268	649
623.681	674.2
624.095	656.6
624.509	671
624.922	664.2
625.336	656.8
625.728	662.2
626.142	681.8
626.556	680.8
626.97	674.2
627.384	650.6
627.799	659.8
628.213	676
628.627	660.2
629.041	653.6
629.456	656.6
629.87	665.2
630.285	674.2
630.699	679.8
631.093	657.6
631.507	666
631.922	663.8
632.337	681.2
632.752	664.2
633.167	662
633.582	660.4
633.997	656.6
634.412	655.8
634.806	667.8
635.221	655.4
635.637	675
636.052	657.2
636.468	664.2
636.883	680.6
637.299	664
637.715	645.4
638.109	660.8
638.525	650.8
638.941	678.8
639.357	665.2
639.773	677
640.189	656.6
640.584	660.2
641	663.2
641.416	662.6
641.832	656.6
642.249	653
642.665	661.4
643.06	664.6
643.477	672.2
643.894	648.6
644.31	664
644.727	660.6
645.123	667
645.54	653.2
645.957	664.6
646.374	682.4
646.77	664.8
647.187	682.8
647.604	665.2
648.021	643.4
648.439	653.4
648.835	667.8
649.252	658
649.67	661.6
650.088	645.6
650.484	661.6
650.902	663
651.32	672.8
651.738	657.8
652.134	669
652.552	679.6
652.971	669.6
653.389	665.6
653.786	676.4
654.204	680.6
654.622	652.2
655.019	662
655.438	659.6
655.857	654.4
656.275	664.6
656.673	660.2
657.091	739.2
657.51	655.8
657.908	680
658.327	676.4
658.746	649.6
659.144	662.6
659.563	671
659.982	669.2
660.38	643.4
660.8	648.2
661.219	670.2
661.617	663.8
662.037	658.4
662.457	668.4
662.855	646
663.275	700.8
663.695	663
664.094	665
664.514	666.4
664.934	654.4
665.333	666.8
665.753	646.2
666.152	647.2
666.572	656.2
666.993	679.8
667.392	660
667.812	653.6
668.212	659.8
668.632	672
669.053	656
669.453	669.4
669.874	660.2
670.273	662.4
670.694	654.4
671.116	675.2
671.515	666.2
671.937	652.8
672.337	657.2
672.758	661
673.158	672.2
673.58	651.8
673.98	655.6
674.402	674
674.824	653.4
675.224	655.8
675.646	646.4
676.047	650.2
676.469	659.4
676.869	675.2
677.292	661.2
677.693	659
678.115	653.6
678.516	660.2
678.939	669
679.34	655.4
679.762	674.4
680.164	658.2
680.586	649.2
680.988	661
681.411	682.4
681.812	654.8
682.236	646.4
682.637	650.8
683.061	636.6
683.462	654.8
683.864	655.4
684.288	664.8
684.69	645.6
685.114	668.4
685.516	660.6
685.94	647.4
686.342	668.2
686.766	662.2
687.168	649.6
687.571	674.4
687.995	657.2
688.398	649
688.822	649.8
689.225	687
689.628	672.4
690.052	661
690.456	671.8
690.88	659.6
691.284	647.2
691.687	665.4
692.112	644.2
692.515	649.2
692.919	661.6
693.344	663.8
693.747	655
694.173	649.2
694.577	670.6
694.98	649
695.406	652
695.81	664.8
696.214	658
696.64	665.6
697.044	670
697.448	676.8
697.874	654.6
698.279	663.4
698.684	638.2
699.11	653.8
699.514	654.2
699.919	650.6
700.324	650.8
700.75	665.4
701.156	654.8
701.561	659.6
701.987	661.4
702.393	677.4
702.798	666.4
703.203	653
703.63	661.4
704.036	644.8
704.442	648.6
704.847	654
705.274	656.6
705.68	659.4
706.086	667.2
706.492	648.6
706.92	652
707.326	669.4
707.732	655.2
708.139	649.6
708.545	650.6
708.973	651
709.38	664.4
709.786	643.8
710.193	675.2
710.6	665.6
711.028	649.6
711.435	659.4
711.842	657.8
712.249	642
712.656	652.2
713.064	668.6
713.492	649
713.9	648
714.307	662
714.715	656
715.123	649.6
715.53	657.6
715.938	670.8
716.367	660.4
716.775	658.4
717.184	656.6
717.592	647.4
718	665.6
718.408	692.8
718.816	704.2
719.225	662.2
719.633	653.4
720.042	647.8
720.472	655.6
720.881	683.2
721.29	659.8
721.699	645.8
722.108	665.2
722.517	654.2
722.926	653.2
723.335	664
723.744	648.2
724.154	663.8
724.563	654.4
724.973	663
725.382	655.2
725.792	643.6
726.202	650
726.612	685.2
727.022	656.2
727.432	655.6
779.813	650.2
780.223	701
780.634	648
781.044	647.4
781.454	649.8
781.865	672.8
782.276	642.6
782.686	658
783.097	646.2
783.508	651.8
783.919	657.8
784.33	662.6
784.741	664.4
785.152	648.8
785.563	638.4
785.974	653
786.386	659.8
786.776	652.6
787.188	652.4
787.599	647.6
788.011	666.2
788.423	659.6
788.835	651.6
789.247	650.6
789.659	658
790.071	646
790.483	696.8
790.874	648.6
791.286	669.4
791.699	655.2
792.111	652.2
792.524	659
792.937	649
793.349	641.8
793.741	650.4
794.154	652.2
794.567	679
794.98	655.6
795.393	641.2
795.785	663.6
796.198	645.8
796.612	658.8
797.026	648.6
797.439	628.4
797.831	642.2
798.245	645.6
798.659	648.8
799.073	646.6
799.487	636
799.88	654.6
800.294	656.8
800.708	659.6
801.123	659
801.516	676.6
801.93	639.2
802.345	642.2
802.76	662.2
803.153	670
803.568	658.2
803.983	657.8
804.377	655.6
804.792	639.8
805.207	638.8
805.601	653.2
806.016	690.4
806.432	649
806.826	695.4
807.242	672.6
807.658	660.6
808.052	649.8
808.468	649.2
808.884	647.4
809.279	651.4
809.695	668.4
810.111	674.2
810.506	657.8
810.922	668.6
811.339	655.4
811.734	661.6
812.151	643.4
812.546	655.2
812.963	651.4
813.38	655.2
813.776	658.4
814.193	674.2
814.589	650.6
815.006	653.6
815.402	637.2
815.82	650.8
816.237	654.8
816.633	652.2
817.051	640.6
817.448	652.8
817.866	637.8
818.262	670.8
818.68	646
819.077	648.6
819.495	647.8
819.892	690.2
820.311	646.4
820.708	647.6
821.127	646.2
821.524	663.8
821.943	648.8
822.34	669
822.759	650.4
823.157	650.6
823.576	667.8
823.974	658
824.393	738.8
824.791	653.6
825.189	648.4
825.609	647.8
826.007	660
826.427	638.8
826.826	652.8
827.246	671.8
827.644	643
828.043	663
828.463	650
828.862	661
829.261	667.2
829.682	636.2
830.081	659.4
830.502	649.8
830.901	662.8
831.301	644.4
831.722	651.2
832.121	641.8
832.521	643.6
832.943	645.6
833.342	640
833.742	636.2
834.164	650
834.564	638.6
834.965	661.6
835.386	657.8
835.787	640.2
836.188	655.4
836.588	661.8
837.01	656.8
837.411	643.2
837.812	663.6
838.213	653
838.636	649.2
839.037	734.6
839.438	653.4
839.84	649.6
840.263	660
840.664	654.4
841.066	657.4
841.468	658
841.891	645.8
842.293	660.8
842.695	654.6
843.098	674.8
843.5	646.8
843.902	655
844.326	661
844.729	651
845.131	675
845.534	658.6
845.937	677
846.34	674.4
846.764	640.6
847.167	656.2
847.571	646.8
847.974	647.6
848.377	658
848.781	706.2
849.184	667.8
849.588	635.8
849.992	650.6
850.396	650.8
850.821	682.6
851.225	656.2
851.63	655.6
852.034	663.8
852.438	646.6
852.843	793
853.247	643.6
853.652	641.4
854.057	662.4
854.462	649.6
854.867	655.6
855.272	697.8
855.677	658.2
856.082	650.8
856.487	637.6
856.893	652.4
857.298	647
857.704	633
858.11	658.4
858.516	661.6
858.922	664.2
859.328	667.4
859.734	655
860.14	655.4
860.525	652
860.931	647
861.338	656.4
861.745	655.8
862.151	661.6
862.558	653.8
862.965	652.6
863.372	640.8
863.779	636.2
864.186	678
864.572	645
864.98	677.8
865.387	689.2
865.795	647.2
866.203	660.6
866.61	649.8
867.018	660.6
867.405	653.8
867.813	657.2
868.221	647.2
868.63	655.6
869.038	657
869.425	701.6
869.834	649
870.243	640.6
870.652	636.6
871.039	651.4
871.448	649
871.857	656.8
872.266	645
872.654	654.8
873.064	634.8
873.473	656.8
873.883	636.2
874.271	646
874.681	668.4
875.091	630.6
875.48	660
875.89	664.6
876.3	644.6
876.689	635.4
877.1	651.6
877.51	648.8
877.9	673
878.31	650
878.721	686.2
879.111	657.6
879.522	646.8
879.933	636.4
880.323	642.4
880.734	639
881.125	652.6
881.536	640.2
881.948	642.6
882.338	646.6
882.75	659.6
883.141	637.8
883.553	648.6
883.944	684.2
884.356	661.2
884.769	649.8
885.16	657
885.573	646.8
885.964	640
886.377	657.4
886.768	639.8
887.181	649.2
887.573	642.4
887.987	658.6
888.378	662.4
888.792	660
889.184	705.8
889.598	641.8
889.99	657
890.383	651.6
890.797	646.4
891.19	658.4
891.604	645.4
891.997	638.8
892.411	646.8
892.805	642.4
893.198	644.6
893.613	635.6
894.006	649.6
894.421	634.8
894.815	649.8
895.209	646
895.624	700
896.018	679.4
896.412	637.4
896.828	646.8
897.222	650.2
897.617	642
898.033	676.8
898.427	649.4
898.822	653
899.239	636.2
899.634	636.4
900.029	662.6
900.424	642.6
900.841	639.8
901.236	656
901.632	666.2
902.027	707.4
902.445	660.8
902.841	645
903.237	644
903.633	664.6
904.05	654.4
904.447	654.2
904.843	656.2
905.24	645
905.636	629.6
906.033	642
906.451	659.2
906.848	637.2
907.246	640.2
907.643	652
908.04	653.2
908.438	665.8
908.835	656.8
909.254	651
909.652	655.4
910.05	649.4
910.448	648
910.846	660.8
911.244	640.8
911.643	650.8
912.041	648.2
912.44	666.4
912.839	631.8
913.237	649
913.636	649
914.035	656.8
914.434	653.4
914.834	654
915.233	656.8
915.633	649.6
916.032	635.2
916.432	640.4
916.832	660.6
917.232	647.8
917.632	637
918.032	657.6
918.432	649.2
918.833	649.2
919.233	641.8
919.634	626.8
920.035	651
920.436	632.6
920.837	653
921.238	643
921.639	643.6
922.019	645.6
922.42	653.4
922.822	654.2
923.224	658.4
923.625	639.8
924.027	643.8
924.429	676
924.81	648.8
925.212	654
925.615	644
926.017	652
926.42	660.2
926.801	650.2
927.204	637.8
927.607	653.2
928.01	670.2
928.413	641.6
928.795	634.8
929.199	646
929.602	648.8
930.006	640.4
930.388	634.8
930.792	650.8
931.196	647
931.579	693.4
931.983	635.6
932.388	707
932.771	645.6
933.176	635
933.58	649.2
933.964	660
934.369	639
934.774	653.8
935.158	648
935.563	645.2
935.947	651.6
936.353	654
936.759	654.6
937.143	661
937.549	656.2
937.934	659.8
938.34	679.8
938.746	637.2
939.131	646.8
939.538	636.2
939.923	652.2
940.33	644.2
940.716	654.4
941.123	651.4
941.508	660.6
941.916	667.4
942.302	659
942.709	628.4
943.096	626.8
943.503	653.4
943.89	649.4
944.298	636.2
944.685	672.8
945.072	642.2
945.48	662.8
945.867	643.8
946.276	642.2
946.663	678
947.051	662
947.46	653.8
947.848	643
948.257	646.2
948.645	655.4
949.033	640.2
949.443	637.4
949.831	691.8
950.22	632.4
950.63	658.2
951.018	683
951.407	649.6
951.796	641.8
952.207	648
952.596	656.4
952.985	644.2
953.375	702
953.786	641.4
954.176	639.6
954.566	664.2
954.956	635.8
955.367	643.6
955.758	668
956.148	634
956.539	656.8
956.929	641.8
957.341	628
957.732	645.2
958.123	656.4
958.515	631.6
958.906	650.6
959.297	649.8
959.689	652.8
960.102	646.2
960.494	642.8
960.886	644.6
961.278	638.6
961.67	672.4
962.062	693.2
962.455	655.2
962.847	645.2
963.24	648
963.633	653
964.026	637.8
964.419	655.6
964.812	656.2
965.206	643.4
965.599	651.8
965.993	648
966.386	655.8
966.78	662.2
967.174	663.4
967.569	641
967.963	644.2
968.357	633.8
968.752	642.2
969.146	645.6
969.541	638.6
969.936	652.4
970.331	650.4
970.705	636.2
971.1	648
971.496	655.8
971.892	637.8
972.287	641.4
972.683	641.8
973.079	645.6
973.454	653
973.85	651.4
974.247	649.4
974.643	674.2
975.04	651.4
975.415	650.4
975.812	638.8
976.209	652.2
976.607	635.6
976.982	660.6
977.38	666
977.778	642.8
978.175	650.4
978.552	656
978.95	657.2
979.348	657.6
979.725	697.8
980.123	639
980.522	641.6
980.899	639
981.298	640.8
981.697	644.4
982.075	639.4
982.474	630.4
982.852	644.8
983.251	651
983.651	641.8
984.029	645.6
984.429	643.4
984.808	628.2
985.208	639.8
985.609	625.8
985.987	627.2
986.388	635
986.768	644
987.168	636
987.548	656.4
987.949	650.8
988.329	647.8
988.731	622.6
989.111	644.8
989.491	648
989.893	642.2
990.273	653
990.676	640.8
991.057	630.4
991.459	649.4
991.84	648.4
992.221	631
992.624	657.2
993.006	655.6
993.388	648.2
993.791	649
994.173	657
994.576	683.2
994.959	634.8
995.341	639.6
995.724	646
996.128	640.6
996.511	645.4
996.894	629.6
997.298	634.8
997.681	651.2
998.065	644.4
998.448	638.8
998.854	655.6
999.237	637
999.621	647.6
1000.01	653.4
1000.39	645.8
1000.8	648.4
1001.18	649.8
1001.56	661.2
1001.95	657
1002.33	648.6
1002.72	643.2
1003.13	645.8
1003.51	643.4
1003.9	637.4
1004.28	660.8
1004.67	635
1005.06	640.4
1005.44	681.4
1005.83	629
1006.21	638.4
1006.6	631.6
1006.99	646
1007.37	652.4
1007.76	644.6
1060.12	633.6
1060.51	631
1060.89	652.8
1061.28	655.2
1061.67	663.8
1062.06	657.4
1062.45	645.2
1062.83	640.6
1063.22	654
1063.61	693.2
1064	663.2
1064.39	637.4
1064.78	649.2
1065.14	658.4
1065.53	657.2
1065.92	652.2
1066.31	639.6
1066.7	649.4
1067.09	659.2
1067.46	655.2
1067.85	643.8
1068.24	642.8
1068.63	651
1069.02	644.4
1069.39	641.2
1069.78	641
1070.17	646.4
1070.57	635.8
1070.93	648.6
1071.33	641.4
1071.72	643.4
1072.11	644
1072.48	641
1072.87	651.4
1073.26	645.4
1073.64	636.6
1074.03	638.6
1074.4	638.6
1074.79	636.2
1075.19	640.2
1075.56	638.8
1075.95	656.6
1076.34	647.8
1076.72	637.4
1077.11	648.2
1077.48	655
1077.88	653.2
1078.25	640.2
1078.64	658.2
1079.02	653
1079.41	650.2
1079.78	643
1080.18	639.8
1080.55	722
1080.95	645.2
1081.32	640
1081.72	649.4
1082.09	650.6
1082.49	644.6
1082.86	649.8
1083.24	632.6
1083.63	625.2
1084.01	643.6
1084.38	656.2
1084.78	633.6
1085.16	653.8
1085.55	657.8
1085.93	662.6
1086.31	633.4
1086.7	674.8
1087.08	648.4
1087.46	645.4
1087.83	634
1088.23	649.6
1088.61	644.6
1088.99	648.2
1089.36	635.4
1089.76	645
1090.14	648.8
1090.52	638.6
1090.9	635.6
1091.27	652.2
1091.67	670.4
1092.05	656.8
1092.43	640
1092.81	653.4
1093.19	647
1093.57	641.4
1093.95	641.4
1094.35	650.8
1094.73	656.8
1095.11	643.4
1095.49	651.4
1095.87	652.2
1096.25	658.2
1096.63	654.8
1097.01	650.2
1097.39	644.6
1097.77	636.4
1098.15	638.4
1098.53	622
1098.91	637.8
1099.29	639.2
1099.68	658.2
1100.06	653.8
1100.44	640.6
1100.82	642.8
1101.18	651.4
1101.56	632
1101.95	649.2
1102.33	636.8
1102.71	647
1103.1	636.8
1103.48	628.2
1103.86	640.6
1104.22	649
1104.61	645.4
1104.99	644.6
1105.38	646.6
1105.76	640.6
1106.12	643.4
1106.51	683.4
1106.89	660
1107.26	645.8
1107.64	660.8
1108.03	643
1108.41	647.8
1108.78	663.8
1109.16	645.2
1109.55	657.8
1109.91	621.4
1110.3	629
1110.69	653.4
1111.05	637.6
1111.44	637
1111.8	650.4
1112.19	651.8
1112.58	651.8
1112.94	647
1113.33	635.4
1113.7	645
1114.09	640.4
1114.45	631.6
1114.84	642.8
1115.21	654.8
1115.6	638.6
1115.96	644
1116.35	654.2
1116.72	647.4
1117.11	655
1117.48	631.8
1117.85	639
1118.24	665.8
1118.6	646.8
1118.99	640.2
1119.36	649
1119.73	648.8
1120.12	650.2
1120.49	628.4
1120.86	651.8
1121.25	641.2
1121.62	621.6
1121.99	635.6
1122.38	658.8
1122.76	638.6
1123.13	647
1123.5	645
1123.89	648.6
1124.26	632
1124.63	644
1125	640
1125.4	631.2
1125.77	642.4
1126.14	624.8
1126.51	628.8
1126.88	645.4
1127.26	630.4
1127.63	631.4
1128.02	638.8
1128.4	631.4
1128.77	634.4
1129.14	638.2
1129.52	640.8
1129.89	632
1130.26	631.6
1130.64	618.8
1131.01	626
