#lambda/nm	C1
208.295	536
208.67	491.2
209.045	452.2
209.419	452.4
209.794	681
210.169	662.2
210.544	796.4
210.919	684.6
211.295	676.4
211.67	687.4
212.045	678.6
212.421	677.2
212.796	721.6
213.172	674.6
213.547	661.8
213.923	676.6
214.299	672
214.675	690.6
215.051	690.8
215.427	692.8
215.803	698.4
216.179	682.2
216.555	672.2
216.932	692.4
217.308	685.6
217.684	677.8
218.061	679.2
218.438	675.6
218.814	677.8
219.191	694.4
219.568	674.8
219.945	681.2
220.322	684.4
220.699	692.2
221.076	692.6
221.453	692.6
221.83	672
222.208	682.4
222.585	678.8
222.962	680.6
223.34	686
223.717	684.8
224.095	680.2
224.473	677.6
224.851	688.4
225.229	676.4
225.607	704.2
225.985	674.8
226.363	687.8
226.741	681.4
227.119	686
227.497	694.6
227.876	675.2
228.254	689.2
228.633	691.4
229.011	693.8
229.39	691.6
229.769	683
230.148	688.4
230.527	698.2
230.905	683.8
231.284	680.4
231.664	670.8
232.043	688.2
232.422	687.4
232.801	676.8
233.181	693.6
233.56	682
233.94	689.6
234.319	672.2
234.699	686.6
235.079	728
235.458	730.8
235.838	709.2
236.218	681.6
236.598	672
236.978	681.6
237.358	670.2
237.738	670.2
238.119	689.8
238.499	677.6
238.88	676.6
239.26	695.6
239.641	672
240.021	681.4
240.402	689.4
240.783	683.4
241.163	684
241.544	681
241.925	679.4
242.306	682.4
242.687	678.8
243.069	690.8
243.45	687.6
243.831	667.4
244.212	675.2
244.594	724.6
244.975	684
245.357	694.6
245.739	673.2
246.12	687.6
246.502	693
246.884	688.6
247.266	680
247.648	686.2
248.03	705.8
248.412	690
248.794	686
249.176	685
249.559	691
249.941	670.4
250.323	666.4
250.706	675.6
251.089	681.2
251.471	686.6
251.854	682.2
252.237	693
252.62	692.4
253.002	680
253.385	682.6
253.769	696
254.152	685.4
254.535	699
254.918	672.4
255.301	674.2
255.685	686.8
256.068	664.6
256.452	706.2
256.835	689.2
257.219	685.4
257.603	693.2
257.986	673
258.37	693.4
258.754	673.6
259.138	693.2
259.522	691.8
259.906	680.8
260.29	687.4
260.675	680.2
261.059	678.2
261.443	672.8
261.828	694.8
262.212	691
262.597	665.2
262.981	671.6
263.366	691.2
263.751	678.8
264.136	678.4
264.521	672
264.906	670.8
265.291	691.2
265.676	671.2
266.061	693.4
266.446	705.6
266.831	684.4
267.217	696.8
267.602	690.8
267.987	682
268.373	682.4
268.759	690.4
269.144	691.8
269.53	672.6
269.916	667.2
270.302	680.4
270.688	688.8
271.074	680.2
271.46	689.4
271.846	718
272.232	683.4
272.618	682
273.004	683.8
273.391	696.8
273.777	704.2
274.164	691.8
274.55	701.8
274.937	690.6
275.324	681
275.71	694.6
276.097	688.8
276.484	662.4
276.871	689
277.258	699.8
277.645	668.4
278.032	682.2
278.419	678.2
278.807	686.2
279.194	672.6
279.581	671.8
279.969	693.6
280.356	683
280.744	686.2
281.131	713.6
281.519	694.8
281.907	671.8
282.295	675.4
282.682	699.8
283.07	686.4
283.458	689.2
283.846	694.8
284.235	695.2
284.623	700
285.011	675
285.399	689.2
285.788	684
286.176	668.8
286.565	702.2
286.953	681.4
287.342	675.6
287.731	679.2
288.119	676.2
288.508	671.4
288.897	682
289.286	679.6
289.675	686
290.064	684.8
290.453	679
290.821	678
291.21	699.8
291.599	678.8
291.989	678.8
292.378	694.2
292.768	700
293.157	680.4
293.547	700.2
293.936	682.2
294.326	670.2
294.716	692
295.106	671
295.496	699.4
295.886	696.2
296.276	678.4
296.666	678.8
297.056	687
297.446	680.8
297.836	699.2
298.227	683.8
298.617	684.4
299.008	694.4
299.398	684.8
299.789	672.4
300.179	695.2
300.57	696.8
300.961	671.6
301.352	670
301.742	695.4
302.133	693.6
302.524	681.4
302.915	683.8
303.307	685.8
303.698	699.2
304.089	694.4
304.48	682.4
304.872	690.8
305.263	681.8
305.655	683.2
306.046	696.2
306.438	703.6
306.829	679.8
307.221	703.2
307.613	682.8
308.005	693.8
308.397	695.6
308.789	706.6
309.181	706.6
309.573	703
309.965	697.4
310.357	679.2
310.749	698.8
311.142	673.8
311.534	686
311.926	697.4
312.319	692.4
312.711	675.8
313.104	698.6
313.497	679
313.889	733.6
314.282	705.8
314.675	713.6
315.068	688.4
315.461	692
315.854	728
316.247	694
316.64	688.4
317.033	687.6
317.405	696
317.798	679.6
318.192	687.8
318.585	675.8
318.979	691.8
319.372	678.6
319.766	683.6
320.16	699.6
320.553	707
320.947	708.8
321.341	684.8
321.735	683
322.129	672.4
322.523	718
322.917	673
323.311	694
323.705	690.2
324.099	698.8
324.494	705.6
324.888	702.8
325.282	677.8
325.677	706
326.071	694.8
326.466	707
326.861	697.2
327.255	699.2
327.65	695.4
328.045	718
328.44	688.8
328.835	680.4
329.23	687.6
329.625	714.4
330.02	683.4
330.415	714.2
330.81	695.6
331.206	686.6
331.601	686
331.996	693.6
332.37	709.8
332.766	677
333.161	708.6
333.557	678.8
333.953	689
334.348	1187.4
334.744	689.2
335.14	685.2
335.536	686.4
335.932	700.6
336.328	671.2
336.724	688.6
337.12	685.4
337.516	688.2
337.913	678.2
338.309	708.2
338.705	684.4
339.102	701.2
339.498	689.6
339.895	698.6
340.291	682.6
340.688	694.2
341.085	670.6
341.481	685
341.878	690.4
342.275	714.4
342.672	674
343.069	680.2
343.466	670.8
343.842	690
344.239	679
344.636	698
345.033	686
345.431	676.4
345.828	678.2
346.225	680.2
346.623	725.4
347.02	690.6
347.418	687.8
347.816	698.4
348.213	672.2
348.611	676.4
349.009	678.8
349.407	699.6
349.805	660.4
350.203	668.6
350.601	689.2
350.999	678
351.397	745.2
351.795	690.6
352.193	691
352.57	688.4
352.969	693.4
353.367	668.2
353.766	674
354.164	675.2
354.563	696.6
354.961	684
355.36	672
355.759	691
356.158	671.2
356.557	680
356.956	665.6
357.355	673
357.754	683.2
358.153	693.2
358.552	712.8
358.951	683.2
359.35	690
359.75	679.2
360.149	683.8
360.527	666.8
360.926	668.6
361.326	679.4
361.726	692.6
362.125	682.2
362.525	688.6
362.925	673.6
363.325	676.6
363.724	677.2
364.124	675.4
364.524	665.8
364.924	675.8
365.324	689.6
365.725	665.2
366.125	676.4
366.525	685.6
366.904	668
367.304	662.6
367.705	697.6
368.105	692.8
368.506	672
368.906	678.6
369.307	673.8
369.708	681.2
370.108	661.8
370.509	683.6
370.91	673.8
371.311	684.6
371.712	676
372.113	670
372.514	659.8
372.894	672.2
373.295	675.2
373.696	684.6
374.097	682.2
374.499	710
374.9	682.4
375.301	681
375.703	683.4
376.105	674.2
376.506	679.8
376.908	682.4
377.309	679.8
377.711	689.2
378.113	675
378.493	672
378.895	681.4
379.297	684
379.699	664.2
380.102	676.4
380.504	676.4
380.906	670.4
381.308	697.6
381.71	679
382.113	682.2
382.515	663.4
382.918	677.6
383.299	675.8
383.701	687.4
384.104	680.8
384.507	665.2
384.909	677.6
385.312	664.6
385.715	667.4
386.118	677.2
386.521	668.8
386.924	690.4
387.327	668.2
387.709	668
388.112	657.2
388.515	672.4
388.918	670
389.322	682.2
389.725	666.6
390.129	697.2
390.532	684.6
390.936	665.6
391.339	664
391.743	678.2
392.125	667
392.529	691.8
392.933	692.4
393.337	680
393.74	680.8
394.144	679.4
394.548	663
394.953	681.6
395.357	679.6
395.761	672
396.144	676.2
396.548	667.4
396.952	671.2
397.357	671.4
397.761	669
398.166	670.4
398.57	677.6
398.975	667.4
399.379	683.8
399.763	735.6
400.168	679.8
400.572	677.6
400.977	673.8
401.382	695.8
401.787	690.2
402.192	704.6
402.597	695.4
403.002	663.2
403.386	688.8
403.791	703.6
404.197	666.2
404.602	677.8
405.007	679.4
405.413	677.6
405.818	681.6
406.224	677.8
406.608	680.2
407.014	667
407.42	692
407.825	672.6
408.231	689
408.637	676.4
409.043	706.2
409.449	672.8
409.834	670.4
410.24	680.2
410.646	691.8
411.052	686.8
411.458	686.6
411.865	686.8
412.271	693.2
412.677	686.4
413.062	679
413.469	670
413.875	712.8
414.282	690.6
414.689	676
415.095	687.4
415.502	669.6
415.888	686.2
416.294	657.8
416.701	727.2
417.108	673
417.515	683
417.923	682.6
418.33	700.8
418.715	685.6
419.123	675.8
419.53	672
419.937	667.6
420.345	695.4
420.752	669.6
421.16	696.6
421.546	683.2
421.953	686
422.361	676
422.769	679.8
423.177	669
423.585	698.4
423.992	702
424.379	690.8
424.787	696.2
425.195	704.4
425.603	681.6
426.011	692.6
426.419	693.6
426.806	687
427.214	687.6
427.623	685.4
428.031	693.4
428.44	687
428.848	704.2
429.235	702.2
429.644	682.6
430.053	674.8
430.461	700
430.87	710.4
431.279	692.8
431.666	680
432.075	679
432.484	687.4
432.893	677
433.302	703.4
433.711	728.4
434.099	684.2
434.508	693.4
434.918	660.6
435.327	693.6
435.737	684.2
436.125	688
436.534	691.2
436.944	684.8
437.353	697.4
437.763	716.4
438.173	673.6
438.561	698.8
438.971	679.4
439.381	689
439.791	704.6
440.201	676.2
440.589	708
440.999	699.4
441.409	706.4
441.819	687.2
442.23	713.8
442.619	719.6
443.029	712.4
443.439	711.8
443.85	718.2
444.26	736.2
444.649	726.8
445.06	724.4
445.471	708.8
445.881	725.6
446.292	740
446.682	743.2
447.092	717.2
447.503	779.6
447.914	730.4
448.325	735.8
448.715	730.2
449.126	718
449.537	727.2
449.948	726.8
450.338	734.8
450.75	735.4
451.161	735.8
451.572	747.8
451.984	730.8
452.374	718.8
452.786	732
453.197	740
453.609	745.2
453.999	728.8
454.411	734
454.823	755.8
455.235	742.4
455.647	740
456.037	743.2
456.449	731.6
456.862	742.8
457.274	755.6
457.665	735.6
458.077	747.2
458.489	779.2
458.902	751.6
459.293	752.4
459.705	742.8
460.118	740
460.53	757.6
460.921	758.2
461.334	756.6
461.747	753.6
462.16	763.2
462.551	774.4
462.964	751.8
463.377	746.2
463.79	753.8
464.182	764.8
464.595	747.4
465.008	768.2
465.421	771
465.813	752.4
466.226	771.8
466.64	751.8
467.053	823
467.445	780.4
467.859	782.8
468.272	776.6
468.686	772
469.078	764.8
469.492	761.8
469.906	769.8
470.298	774.4
470.712	763.4
471.126	826.8
471.54	751.4
471.933	762.8
472.347	766
472.761	753.2
473.175	756.2
473.568	755.2
473.982	746.6
474.397	776.8
474.79	765.4
475.204	765.6
475.619	757.8
476.033	773.4
476.426	767.2
476.841	758.8
477.256	783
477.649	752.2
478.064	756.6
478.479	757.8
478.872	755.8
479.287	754.2
479.702	760.2
480.118	757
480.511	770
480.927	759.8
481.342	766.2
481.736	783.2
482.151	766.6
482.566	773.2
482.96	777.6
483.376	773
483.792	765
484.186	767
484.602	767
485.017	771.6
485.412	766.4
485.827	769
486.243	762.8
486.638	776.6
487.054	760.8
487.47	788.6
487.865	757.2
488.281	756.8
488.697	758.8
489.092	763.8
489.508	755.8
489.925	778.6
490.32	754.4
490.736	772.2
491.153	761
491.548	766
491.964	769.2
492.381	751.8
492.776	773
493.193	759.2
493.61	763.4
494.006	752.8
494.422	767.2
494.84	748.6
495.235	768
495.652	753.4
496.069	749.2
496.465	742.6
496.883	749.2
497.3	784.2
497.696	742
498.113	760
498.509	735.6
498.927	726.2
499.344	740.2
499.741	747.8
500.158	747.2
500.576	752.8
500.973	746.4
501.39	737
501.787	735.4
502.205	746.2
502.623	737
503.02	723.6
503.438	746.8
503.856	743.8
504.253	743.4
504.671	743.6
505.068	723.6
505.486	741.2
505.905	758.2
506.302	740.4
506.72	751.6
507.118	733
507.536	735
507.955	730.6
508.352	734.4
508.771	750.6
509.169	745.6
509.587	733.4
510.006	736.8
510.404	721
510.823	728.8
511.221	732
511.64	743.6
512.038	750
512.457	720.8
512.877	726.6
513.275	721.6
513.694	726.2
514.092	725.6
514.512	738
514.91	717.8
515.33	724.4
515.749	732.4
516.148	722.4
516.568	732.8
516.966	731
517.386	715.8
517.785	717.4
518.205	719.6
518.603	721.8
519.024	709.8
519.444	725
519.843	739
520.263	716
520.662	717
521.082	716.4
521.481	722.4
521.902	713.4
522.301	717.2
522.722	715
523.121	713
523.542	713.2
523.963	711.6
524.362	724.4
524.783	712.8
525.183	712.8
525.604	717.4
526.003	706.6
526.425	705.8
526.824	725.4
527.246	717.4
527.646	717.2
528.067	703
528.467	708.6
528.888	717.4
529.289	708.6
529.71	702
530.11	712.4
530.532	707
530.932	694.2
531.354	695
531.755	740.2
532.176	711
532.577	704
532.999	713.6
533.4	694.6
533.822	714.6
534.223	711.6
534.645	703
535.046	704.4
535.468	703.6
535.869	716.6
536.292	694.8
536.693	740.4
537.115	702
537.516	693.6
537.939	702.6
538.34	718.2
538.742	706.4
539.165	708.8
539.566	705.2
539.989	697.6
540.391	695.6
540.814	698.6
541.216	699.4
541.639	702.2
542.041	705.2
542.464	687.6
542.866	681
543.268	694.8
543.691	696.2
544.093	701.6
544.517	717.2
544.919	692.4
545.343	715.8
545.745	687
546.147	701.8
546.571	689.2
546.974	684.8
547.398	693
547.8	715
548.224	692
548.627	675.2
549.03	707.8
549.454	686.8
549.857	676.6
550.281	686.6
550.684	681.2
551.087	707.2
551.512	687.8
551.915	700.2
552.34	699
552.743	686.4
553.146	706
553.571	693
553.975	715.4
554.399	680.6
554.803	749.4
555.207	677.6
555.632	682.2
556.036	695.8
556.461	675.4
556.865	684.4
557.268	675.6
557.694	685
558.098	688.6
558.502	688
558.927	684.4
559.332	686
559.736	685.4
560.162	687.4
560.566	677
560.992	686.6
561.396	685.6
561.801	679.4
562.227	683
562.631	675.8
563.036	681.8
563.462	691
563.867	684.2
564.272	670.6
564.698	691.6
565.103	664.4
565.508	704.2
565.935	673.2
566.34	678.4
566.745	701.2
567.172	670.8
567.577	709.8
567.982	688.6
568.409	686.6
568.815	667.4
569.22	676.4
569.626	688
570.053	668.2
570.459	681.2
570.865	685
571.292	684.8
571.698	675
572.104	667.6
572.531	678.8
572.937	683.6
573.343	664.4
573.75	668.2
574.177	675.6
574.583	682.6
574.99	671.6
575.396	685
575.824	680.4
576.231	681.8
576.637	674.6
577.065	701.2
577.472	668.4
577.879	675.4
578.286	693.2
578.714	667.6
579.121	666.4
579.528	671.8
579.935	678.2
580.364	671.2
580.771	659
581.178	659.4
581.585	673
582.014	676.6
582.421	666.8
582.829	669.4
583.236	684.6
583.644	664
584.073	672.4
584.481	676.2
584.889	666
585.296	677.6
585.726	675
586.134	660.2
586.542	668.2
586.95	696.8
587.358	656
587.787	670.2
588.196	652
588.604	659.6
589.012	671.8
589.421	663.4
589.851	658.8
590.259	667.8
590.668	664
591.076	706.8
591.485	658.4
591.894	671.2
592.324	680.6
592.733	685.8
593.142	656.2
593.551	659
593.96	703.6
594.369	656.2
594.8	662.8
595.209	671.2
595.618	652.8
596.028	666
596.437	653.8
596.847	663.6
597.256	665.6
597.687	672.6
598.097	663.6
598.507	659
598.917	672.4
599.327	672.6
599.736	669
600.146	685
600.556	662.6
600.988	681.2
601.398	664.8
601.808	683.4
602.219	661.8
602.629	663.8
603.039	667.6
603.45	691.2
603.86	663.6
604.271	674.6
604.703	670.4
605.114	662
605.525	666.8
605.935	665.4
606.346	690.6
606.757	664.8
607.168	666.2
607.579	655.8
607.99	674.2
608.402	660.8
608.813	673
609.224	655.6
609.636	654.6
610.047	655
610.48	657.4
610.892	687.6
611.303	679.2
611.715	653.8
612.127	653
612.539	659
612.95	666.2
613.362	663.2
613.774	655
614.186	654.8
614.599	659.6
615.011	680.2
615.423	668.8
615.835	653.2
616.248	652.6
616.66	669.4
617.073	650.4
617.485	654
617.898	666.4
618.311	665.8
618.723	654.6
619.136	689.4
619.549	681.4
619.962	687.4
620.375	661.2
620.788	671
621.201	651.6
621.614	663.2
622.028	657
622.441	665.2
622.854	679
623.268	659.6
623.681	665.6
624.095	659.2
624.509	665
624.922	664
625.336	651
625.728	658.4
626.142	678.6
626.556	690.4
626.97	668
627.384	658.2
627.799	657
628.213	663.4
628.627	652.8
629.041	666.6
629.456	649.4
629.87	671.4
630.285	667.8
630.699	668.6
631.093	656
631.507	666.2
631.922	671.4
632.337	682.6
632.752	654.4
633.167	660.8
633.582	658.6
633.997	650.6
634.412	655.4
634.806	662.6
635.221	647.8
635.637	675.6
636.052	649.8
636.468	669.8
636.883	689.4
637.299	654.2
637.715	645.4
638.109	662
638.525	652.8
638.941	683.4
639.357	669.6
639.773	673.6
640.189	656.8
640.584	661.8
641	668.6
641.416	648.6
641.832	663.4
642.249	656.6
642.665	663.2
643.06	668.6
643.477	670
643.894	643.8
644.31	657.2
644.727	648
645.123	656.8
645.54	651.6
645.957	667.6
646.374	671
646.77	663.4
647.187	690
647.604	667
648.021	646.4
648.439	649.2
648.835	656.2
649.252	655.6
649.67	657.6
650.088	656.8
650.484	657.4
650.902	655.6
651.32	657
651.738	650.6
652.134	657.8
652.552	681
652.971	667
653.389	661.4
653.786	679.4
654.204	681
654.622	657.4
655.019	664.4
655.438	663.2
655.857	658
656.275	664
656.673	649.8
657.091	740.4
657.51	648
657.908	672.4
658.327	678.2
658.746	644.8
659.144	664.8
659.563	680.6
659.982	657.2
660.38	650.8
660.8	665.2
661.219	658.6
661.617	658.8
662.037	649.6
662.457	673
662.855	645.8
663.275	693
663.695	657.8
664.094	655
664.514	656.4
664.934	647
665.333	673.2
665.753	652.6
666.152	640
666.572	651.2
666.993	675
667.392	651.2
667.812	657.6
668.212	647.4
668.632	673.2
669.053	654
669.453	665.6
669.874	654.8
670.273	665.8
670.694	653.2
671.116	667.8
671.515	668.2
671.937	656
672.337	659
672.758	646.8
673.158	661
673.58	649.6
673.98	658
674.402	671.8
674.824	656.2
675.224	653.6
675.646	654
676.047	660.6
676.469	657.2
676.869	660.6
677.292	663.6
677.693	645
678.115	653.6
678.516	665.6
678.939	665
679.34	654
679.762	662
680.164	658.6
680.586	648
680.988	658
681.411	688.2
681.812	648.2
682.236	654.4
682.637	647.4
683.061	643
683.462	649.4
683.864	654
684.288	663.4
684.69	644.4
685.114	671.2
685.516	663.4
685.94	646
686.342	663.8
686.766	655.4
687.168	654
687.571	674.4
687.995	668
688.398	650.6
688.822	654.8
689.225	680
689.628	679
690.052	646.2
690.456	668.4
690.88	667.4
691.284	646.8
691.687	659.6
692.112	647
692.515	645.4
692.919	650.2
693.344	653.2
693.747	660.2
694.173	659.2
694.577	671.6
694.98	657.4
695.406	659.8
695.81	660.4
696.214	660
696.64	666.2
697.044	667.6
697.448	669.8
697.874	651.4
698.279	659.6
698.684	649.2
699.11	650
699.514	649.6
699.919	650
700.324	646
700.75	663.4
701.156	644.8
701.561	668
701.987	659.6
702.393	664.4
702.798	667.4
703.203	657.4
703.63	657.6
704.036	649.6
704.442	655.6
704.847	637.6
705.274	655
705.68	663.8
706.086	669.2
706.492	647.2
706.92	650.6
707.326	655
707.732	659.8
708.139	645
708.545	641.4
708.973	648.8
709.38	655.4
709.786	642.8
710.193	671.4
710.6	646.6
711.028	647.8
711.435	658.8
711.842	659
712.249	653.8
712.656	656.8
713.064	671.2
713.492	641.6
713.9	652.4
714.307	650.2
714.715	655.6
715.123	657.6
715.53	655.6
715.938	665
716.367	658
716.775	651.2
717.184	648.2
717.592	667.8
718	668.2
718.408	701
718.816	709
719.225	661.4
719.633	653.2
720.042	651
720.472	648.8
720.881	673.2
721.29	668
721.699	644.6
722.108	660.6
722.517	660.2
722.926	651.4
723.335	667.4
723.744	654.2
724.154	660.8
724.563	649.8
724.973	652.6
725.382	656
725.792	647.6
726.202	645.2
726.612	673.8
727.022	650.6
727.432	647.4
779.813	646.6
780.223	701
780.634	648
781.044	649.8
781.454	654.4
781.865	666.4
782.276	651.6
782.686	660.4
783.097	657.6
783.508	653.8
783.919	655.2
784.33	670.6
784.741	672.2
785.152	646.4
785.563	637.6
785.974	653
786.386	663.6
786.776	653.4
787.188	651.2
787.599	642.6
788.011	667
788.423	655.2
788.835	653.4
789.247	646.6
789.659	639.4
790.071	653.4
790.483	697.8
790.874	645
791.286	657.8
791.699	650
792.111	658.8
792.524	660.8
792.937	654.2
793.349	646
793.741	645.2
794.154	647.2
794.567	670.8
794.98	654.6
795.393	634.8
795.785	671.4
796.198	645.4
796.612	647.8
797.026	647.8
797.439	644.2
797.831	650.8
798.245	642.2
798.659	651
799.073	650.4
799.487	650
799.88	646.6
800.294	649.6
800.708	657
801.123	652.2
801.516	673.8
801.93	638.8
802.345	639.2
802.76	648.8
803.153	664.2
803.568	659.4
803.983	665.8
804.377	658.2
804.792	632.2
805.207	638.6
805.601	653.4
806.016	682
806.432	645.2
806.826	690
807.242	664.8
807.658	662
808.052	654.2
808.468	649.8
808.884	644
809.279	656.4
809.695	661.4
810.111	676.8
810.506	656
810.922	671.6
811.339	652.2
811.734	660.2
812.151	647.4
812.546	648.8
812.963	655.8
813.38	644.6
813.776	650.4
814.193	684.6
814.589	643.8
815.006	644
815.402	641.4
815.82	653.2
816.237	646
816.633	652.6
817.051	640.4
817.448	651.4
817.866	647.2
818.262	666.2
818.68	643.2
819.077	646.2
819.495	652.4
819.892	703.4
820.311	645
820.708	649.8
821.127	648
821.524	672.8
821.943	653.4
822.34	676.6
822.759	651.8
823.157	649.6
823.576	659.8
823.974	666.2
824.393	777
824.791	645
825.189	648.2
825.609	662
826.007	651
826.427	641.2
826.826	655.4
827.246	663.6
827.644	633.4
828.043	662.6
828.463	644.6
828.862	664.8
829.261	663.2
829.682	638
830.081	660.6
830.502	649.8
830.901	659
831.301	647.4
831.722	636.4
832.121	651.8
832.521	641.4
832.943	660.8
833.342	653
833.742	641
834.164	641.6
834.564	644
834.965	653.4
835.386	649.2
835.787	649.4
836.188	651.6
836.588	640.4
837.01	652.2
837.411	641.2
837.812	652
838.213	653.8
838.636	643.4
839.037	730.8
839.438	651
839.84	656.8
840.263	660.8
840.664	645.4
841.066	642.6
841.468	664.2
841.891	657.4
842.293	663.2
842.695	662.8
843.098	658
843.5	643
843.902	653.6
844.326	654.2
844.729	651.8
845.131	662
845.534	651.6
845.937	662
846.34	676.4
846.764	645
847.167	662
847.571	644.2
847.974	648
848.377	652.2
848.781	698.2
849.184	663
849.588	646.2
849.992	644
850.396	653.2
850.821	661.8
851.225	656
851.63	655.6
852.034	658.8
852.438	649.2
852.843	702.2
853.247	642.4
853.652	645
854.057	671
854.462	655.2
854.867	655.4
855.272	681.2
855.677	663.8
856.082	648.2
856.487	639.8
856.893	663.2
857.298	650.4
857.704	642
858.11	657.8
858.516	653.8
858.922	654.6
859.328	659.4
859.734	645.4
860.14	657.8
860.525	645
860.931	642.8
861.338	645
861.745	652.6
862.151	656
862.558	649.4
862.965	647.2
863.372	646
863.779	648
864.186	668
864.572	641.4
864.98	671
865.387	678.6
865.795	644.2
866.203	654.2
866.61	643.2
867.018	657.8
867.405	661.2
867.813	653.4
868.221	654
868.63	651.6
869.038	652.8
869.425	698.6
869.834	649.8
870.243	649.4
870.652	642
871.039	647
871.448	652
871.857	652.2
872.266	655.2
872.654	654.6
873.064	643.4
873.473	670
873.883	646.4
874.271	642
874.681	656.4
875.091	639.2
875.48	667
875.89	670.8
876.3	650
876.689	638.2
877.1	647.6
877.51	644.6
877.9	670.6
878.31	637.2
878.721	691.4
879.111	652.2
879.522	639.4
879.933	640.4
880.323	638.4
880.734	635.8
881.125	647.2
881.536	637.2
881.948	642.8
882.338	649.2
882.75	660.4
883.141	646.8
883.553	651.8
883.944	681.2
884.356	659.6
884.769	650.8
885.16	645.2
885.573	647.6
885.964	636.8
886.377	652.6
886.768	638.8
887.181	646
887.573	632.8
887.987	659
888.378	657.8
888.792	651.8
889.184	697.2
889.598	644.6
889.99	656.8
890.383	649
890.797	647.4
891.19	662.8
891.604	645.2
891.997	634
892.411	649.4
892.805	634.8
893.198	643
893.613	632.4
894.006	649.4
894.421	640.6
894.815	651.4
895.209	650.4
895.624	689.8
896.018	671.6
896.412	641
896.828	638.4
897.222	653.6
897.617	649.4
898.033	666.6
898.427	655
898.822	649
899.239	640
899.634	631.6
900.029	663
900.424	638.6
900.841	633.2
901.236	660.4
901.632	653.8
902.027	713
902.445	656.6
902.841	649.4
903.237	653.8
903.633	657.8
904.05	651.6
904.447	649.6
904.843	655.8
905.24	634.6
905.636	628.4
906.033	653
906.451	656.2
906.848	645.6
907.246	641.8
907.643	646.6
908.04	655.6
908.438	669.6
908.835	651.2
909.254	649.8
909.652	654.8
910.05	643.4
910.448	643
910.846	658
911.244	647.2
911.643	647.8
912.041	648.6
912.44	671.6
912.839	645.8
913.237	637.4
913.636	644
914.035	659.4
914.434	639.6
914.834	653.8
915.233	658.8
915.633	641
916.032	630.6
916.432	646.4
916.832	662.2
917.232	647.4
917.632	635.4
918.032	646.4
918.432	649.2
918.833	645.4
919.233	651.6
919.634	641.8
920.035	655.2
920.436	635.2
920.837	656.8
921.238	637.4
921.639	648.4
922.019	645.4
922.42	650.8
922.822	653.8
923.224	652
923.625	642.8
924.027	650.8
924.429	668.8
924.81	653.6
925.212	656.2
925.615	653
926.017	645
926.42	654.8
926.801	656.6
927.204	656.2
927.607	658.4
928.01	659.4
928.413	651.4
928.795	634.2
929.199	643
929.602	642.4
930.006	647
930.388	640.2
930.792	644.4
931.196	646.6
931.579	687.4
931.983	639.2
932.388	695.4
932.771	641.2
933.176	640.6
933.58	656.6
933.964	661.8
934.369	629.2
934.774	650.4
935.158	647.6
935.563	648.2
935.947	654.6
936.353	654.2
936.759	647.2
937.143	645.8
937.549	647.8
937.934	652.4
938.34	660.8
938.746	645
939.131	642
939.538	640
939.923	646.8
940.33	645.4
940.716	652.8
941.123	648.2
941.508	655
941.916	670.4
942.302	648.2
942.709	632.8
943.096	630.2
943.503	647.6
943.89	641.8
944.298	643.4
944.685	682
945.072	645
945.48	665.6
945.867	641.2
946.276	633.6
946.663	675.2
947.051	666.6
947.46	662.4
947.848	647.4
948.257	646.4
948.645	644.2
949.033	639.2
949.443	637.6
949.831	695
950.22	635.8
950.63	651.8
951.018	673
951.407	644.8
951.796	636.2
952.207	642.2
952.596	650.6
952.985	636.2
953.375	691.8
953.786	645.4
954.176	635.6
954.566	650.8
954.956	633
955.367	641
955.758	669.8
956.148	636.8
956.539	668.4
956.929	632
957.341	624.8
957.732	639.4
958.123	661.8
958.515	634.4
958.906	652.6
959.297	647
959.689	645.8
960.102	636.6
960.494	638
960.886	644.4
961.278	636
961.67	675.8
962.062	687.8
962.455	635.6
962.847	640.6
963.24	642.6
963.633	643.4
964.026	640.2
964.419	642
964.812	653.6
965.206	647.4
965.599	655.4
965.993	645.4
966.386	649
966.78	661.4
967.174	653.8
967.569	640.8
967.963	634
968.357	642.2
968.752	638.8
969.146	634.6
969.541	641
969.936	643.6
970.331	654.2
970.705	645.2
971.1	641.4
971.496	663.2
971.892	637.4
972.287	649.4
972.683	638.6
973.079	646.2
973.454	659
973.85	643.4
974.247	656.4
974.643	673.8
975.04	647.2
975.415	643.8
975.812	644.6
976.209	648
976.607	633.8
976.982	653.4
977.38	664
977.778	643.4
978.175	639.2
978.552	646
978.95	646.6
979.348	648.4
979.725	696.2
980.123	645
980.522	645.6
980.899	635.2
981.298	634.8
981.697	647.4
982.075	641
982.474	633.8
982.852	646.8
983.251	645.2
983.651	637.8
984.029	650
984.429	653.4
984.808	629.6
985.208	642.4
985.609	632.8
985.987	619.8
986.388	631
986.768	649.6
987.168	639.8
987.548	648.4
987.949	654.8
988.329	653.4
988.731	626.6
989.111	646
989.491	642.2
989.893	646
990.273	663
990.676	638.8
991.057	638.4
991.459	638.6
991.84	637.8
992.221	626.4
992.624	664.8
993.006	647
993.388	653
993.791	650
994.173	654.6
994.576	683.8
994.959	638.8
995.341	639.6
995.724	646.2
996.128	646.6
996.511	647.4
996.894	648.4
997.298	641.8
997.681	648.2
998.065	647
998.448	644.4
998.854	653.2
999.237	636.4
999.621	658.2
1000.01	666.4
1000.39	644.2
1000.8	641.6
1001.18	651.6
1001.56	656.2
1001.95	650.2
1002.33	649.6
1002.72	643.8
1003.13	640.6
1003.51	637.2
1003.9	640
1004.28	664.8
1004.67	635.8
1005.06	645.8
1005.44	676.4
1005.83	634.8
1006.21	641
1006.6	639.8
1006.99	650
1007.37	650.8
1007.76	643.8
1060.12	632.2
1060.51	640.4
1060.89	649.8
1061.28	663.6
1061.67	653.2
1062.06	653.2
1062.45	651
1062.83	645.2
1063.22	658.6
1063.61	701.6
1064	652.4
1064.39	652.4
1064.78	643.2
1065.14	647.4
1065.53	648
1065.92	642.8
1066.31	636
1066.7	646
1067.09	650
1067.46	651.4
1067.85	644.6
1068.24	640
1068.63	655.4
1069.02	641.2
1069.39	651.4
1069.78	637.6
1070.17	637.4
1070.57	632
1070.93	639.2
1071.33	634.6
1071.72	648.8
1072.11	645.6
1072.48	640
1072.87	631.6
1073.26	640.6
1073.64	649
1074.03	632.8
1074.4	643.8
1074.79	650.8
1075.19	637.6
1075.56	650.2
1075.95	644.2
1076.34	647.8
1076.72	639
1077.11	647.6
1077.48	650.8
1077.88	654.4
1078.25	646.4
1078.64	657.4
1079.02	650.6
1079.41	648.2
1079.78	649.6
1080.18	645
1080.55	729.6
1080.95	638
1081.32	639.6
1081.72	656.4
1082.09	645.6
1082.49	636.8
1082.86	643.6
1083.24	633.8
1083.63	633.8
1084.01	638.6
1084.38	645.4
1084.78	633.4
1085.16	639.2
1085.55	661.4
1085.93	655.2
1086.31	634.4
1086.7	678.6
1087.08	634.4
1087.46	637.6
1087.83	625
1088.23	655
1088.61	644.8
1088.99	646.6
1089.36	640.4
1089.76	634.4
1090.14	639.4
1090.52	638.6
1090.9	635.6
1091.27	653.2
1091.67	672
1092.05	646.6
1092.43	636.8
1092.81	652.4
1093.19	652.4
1093.57	642.8
1093.95	634.4
1094.35	660
1094.73	659.8
1095.11	635.6
1095.49	638
1095.87	642.2
1096.25	658.6
1096.63	648.6
1097.01	631.6
1097.39	644.4
1097.77	631.8
1098.15	640
1098.53	625
1098.91	647.2
1099.29	641.6
1099.68	658.8
1100.06	647.2
1100.44	646.2
1100.82	648.4
1101.18	649.4
1101.56	637.6
1101.95	635.6
1102.33	638.8
1102.71	650
1103.1	631.6
1103.48	620.2
1103.86	632.6
1104.22	655.2
1104.61	645.8
1104.99	642.4
1105.38	639.8
1105.76	641
1106.12	640.6
1106.51	672
1106.89	660
1107.26	640
1107.64	658
1108.03	644.6
1108.41	641.2
1108.78	646.2
1109.16	647.6
1109.55	647.4
1109.91	630.8
1110.3	628
1110.69	656.6
1111.05	645.6
1111.44	640.2
1111.8	632.4
1112.19	646.6
1112.58	649.4
1112.94	640
1113.33	639.2
1113.7	633.6
1114.09	628.4
1114.45	632.6
1114.84	630.4
1115.21	640.8
1115.6	629.8
1115.96	645.6
1116.35	645.4
1116.72	640.8
1117.11	654.4
1117.48	632.6
1117.85	636.8
1118.24	656.2
1118.6	649
1118.99	630
1119.36	655.2
1119.73	639.2
1120.12	654
1120.49	638
1120.86	648.8
1121.25	639.2
1121.62	631.8
1121.99	642.6
1122.38	654.2
1122.76	644.8
1123.13	641.8
1123.5	649.8
1123.89	661.2
1124.26	634
1124.63	643
1125	651.6
1125.4	626.2
1125.77	621.8
1126.14	620.8
1126.51	631.2
1126.88	644.2
1127.26	632.8
1127.63	621
1128.02	638.2
1128.4	634
1128.77	643.2
1129.14	634.4
1129.52	626.4
1129.89	645.2
1130.26	634
1130.64	634.2
1131.01	638.8
