#lambda/nm	C1
208.295	531
208.67	489.6
209.045	450.4
209.419	450
209.794	676.6
210.169	665.6
210.544	815
210.919	691.2
211.295	676.6
211.67	678.6
212.045	678.4
212.421	682.6
212.796	718.2
213.172	669.2
213.547	675.6
213.923	674.6
214.299	670.2
214.675	683.8
215.051	676
215.427	687.6
215.803	699
216.179	683.8
216.555	669.8
216.932	695
217.308	674.8
217.684	673.8
218.061	684.2
218.438	684.2
218.814	666
219.191	687
219.568	673
219.945	668
220.322	683.2
220.699	691.2
221.076	686
221.453	687.8
221.83	667.4
222.208	677.8
222.585	670.2
222.962	683.2
223.34	683
223.717	689
224.095	688.2
224.473	686
224.851	679
225.229	666.4
225.607	699.2
225.985	676.8
226.363	680.8
226.741	675.8
227.119	679.2
227.497	698.8
227.876	674.8
228.254	688.6
228.633	694.4
229.011	695.2
229.39	690.6
229.769	691.6
230.148	690
230.527	705
230.905	686.4
231.284	688
231.664	674.8
232.043	701.2
232.422	697.2
232.801	676
233.181	702.2
233.56	680.2
233.94	692.4
234.319	662.8
234.699	684.6
235.079	731
235.458	720.2
235.838	712.4
236.218	683.6
236.598	667.6
236.978	673.4
237.358	681.4
237.738	679
238.119	684.2
238.499	673.4
238.88	685.4
239.26	699.2
239.641	675.6
240.021	679.2
240.402	688
240.783	690.8
241.163	679.2
241.544	682.2
241.925	682.4
242.306	698.2
242.687	679.2
243.069	689.2
243.45	700
243.831	682
244.212	679.8
244.594	720
244.975	692
245.357	686.4
245.739	674.6
246.12	687.2
246.502	703.4
246.884	679
247.266	684.2
247.648	682.2
248.03	716.2
248.412	687.4
248.794	691.6
249.176	677.4
249.559	691.2
249.941	676
250.323	673.8
250.706	669.4
251.089	681
251.471	683.4
251.854	680.6
252.237	677
252.62	688.6
253.002	676.6
253.385	680.6
253.769	702.6
254.152	680.2
254.535	689
254.918	670.4
255.301	674.4
255.685	672.2
256.068	670.2
256.452	706
256.835	697.8
257.219	687
257.603	695.4
257.986	667.2
258.37	692.4
258.754	675.6
259.138	681.2
259.522	687.4
259.906	686
260.29	688
260.675	676.6
261.059	678.4
261.443	670.2
261.828	682
262.212	697.2
262.597	661.2
262.981	682
263.366	674.4
263.751	671.6
264.136	673.6
264.521	676.8
264.906	673.2
265.291	685.6
265.676	674
266.061	690.2
266.446	698.2
266.831	681
267.217	706
267.602	680
267.987	684.8
268.373	673.4
268.759	692.6
269.144	683.6
269.53	678.2
269.916	681.8
270.302	679.2
270.688	685.4
271.074	684.6
271.46	701.4
271.846	726
272.232	681.2
272.618	679.6
273.004	686.8
273.391	689.4
273.777	694.8
274.164	689.4
274.55	703.6
274.937	688.6
275.324	680.6
275.71	695.8
276.097	687.8
276.484	671.6
276.871	683.8
277.258	690
277.645	672.2
278.032	681.6
278.419	676.2
278.807	685.2
279.194	669.8
279.581	678.8
279.969	684.4
280.356	691
280.744	685
281.131	710.2
281.519	697.8
281.907	671.6
282.295	681.4
282.682	698.8
283.07	684.6
283.458	683.6
283.846	693.6
284.235	697.8
284.623	685.8
285.011	675.4
285.399	681.6
285.788	683.4
286.176	673.6
286.565	696.4
286.953	675
287.342	685
287.731	683
288.119	669.8
288.508	682
288.897	678.6
289.286	671.6
289.675	686.6
290.064	700.6
290.453	685.4
290.821	684.4
291.21	700
291.599	681
291.989	684.8
292.378	690.6
292.768	716.8
293.157	693.2
293.547	698.4
293.936	684
294.326	679.6
294.716	691.2
295.106	681
295.496	691.2
295.886	693.2
296.276	689.4
296.666	679
297.056	679.6
297.446	667.2
297.836	707.8
298.227	689.6
298.617	693.4
299.008	704
299.398	681.4
299.789	675.2
300.179	683.4
300.57	696.2
300.961	683.8
301.352	682.2
301.742	691.2
302.133	684.4
302.524	685.6
302.915	687.8
303.307	677.4
303.698	699.4
304.089	684.8
304.48	682.2
304.872	699.4
305.263	686.8
305.655	681
306.046	695.6
306.438	682.8
306.829	675.2
307.221	705.4
307.613	694.4
308.005	702.2
308.397	700
308.789	710.8
309.181	712.8
309.573	710.2
309.965	696.8
310.357	684.2
310.749	707
311.142	680
311.534	681.2
311.926	686.4
312.319	686
312.711	674.6
313.104	713
313.497	680.2
313.889	728.2
314.282	708.6
314.675	711.2
315.068	689.2
315.461	698.4
315.854	726.2
316.247	702.2
316.64	693.4
317.033	691
317.405	689
317.798	685.8
318.192	684
318.585	672.4
318.979	693.6
319.372	682.2
319.766	685.6
320.16	692.4
320.553	705.8
320.947	713.4
321.341	686.2
321.735	684.8
322.129	673.4
322.523	712
322.917	682.2
323.311	695.4
323.705	686.4
324.099	692.2
324.494	696.2
324.888	691.6
325.282	688
325.677	701
326.071	692
326.466	687.6
326.861	687.8
327.255	711.4
327.65	704.6
328.045	709.4
328.44	692.8
328.835	692.6
329.23	680.6
329.625	719.6
330.02	686.6
330.415	715.6
330.81	695.4
331.206	694
331.601	678
331.996	697.6
332.37	715.6
332.766	675.6
333.161	702.6
333.557	685.6
333.953	690.2
334.348	1193
334.744	697
335.14	683.6
335.536	690
335.932	698.2
336.328	684.4
336.724	699.8
337.12	685.8
337.516	691.4
337.913	695
338.309	702.4
338.705	687.8
339.102	699.4
339.498	677.6
339.895	711.8
340.291	677.2
340.688	690
341.085	680.4
341.481	685.2
341.878	682
342.275	700.4
342.672	684
343.069	677.6
343.466	680.6
343.842	693.8
344.239	675.2
344.636	682.6
345.033	674.2
345.431	679.8
345.828	692.2
346.225	682.4
346.623	730.6
347.02	684.4
347.418	699
347.816	704
348.213	680
348.611	690.2
349.009	684.4
349.407	695
349.805	675.2
350.203	670
350.601	701
350.999	681.2
351.397	735.2
351.795	684.6
352.193	687.8
352.57	689.6
352.969	700.2
353.367	668.6
353.766	668
354.164	677.4
354.563	703.2
354.961	678
355.36	676
355.759	686.2
356.158	677.8
356.557	678
356.956	664.8
357.355	665.4
357.754	687.6
358.153	679.4
358.552	705.6
358.951	680.6
359.35	691.2
359.75	680.2
360.149	675.4
360.527	669
360.926	671.6
361.326	685.8
361.726	682.2
362.125	667
362.525	683.4
362.925	678.8
363.325	671.8
363.724	679.8
364.124	679.2
364.524	668.8
364.924	664.2
365.324	692.8
365.725	660
366.125	685.2
366.525	682.8
366.904	664
367.304	663.6
367.705	702.2
368.105	698
368.506	683.4
368.906	677.4
369.307	681
369.708	682
370.108	659
370.509	689.2
370.91	675.6
371.311	676.2
371.712	673.6
372.113	666.8
372.514	666.2
372.894	670.8
373.295	670
373.696	689.6
374.097	691.6
374.499	714.4
374.9	680
375.301	663.4
375.703	685.4
376.105	661.8
376.506	694.2
376.908	685.6
377.309	682.8
377.711	684.4
378.113	669.6
378.493	682
378.895	675.6
379.297	689.6
379.699	663.6
380.102	693.8
380.504	672.6
380.906	680.2
381.308	701.8
381.71	683.6
382.113	688.8
382.515	678
382.918	681
383.299	670.2
383.701	689.2
384.104	682.4
384.507	664
384.909	670.8
385.312	663.2
385.715	665.8
386.118	674.4
386.521	659.6
386.924	683
387.327	665
387.709	657
388.112	666.2
388.515	679
388.918	678.2
389.322	687
389.725	662.6
390.129	701.2
390.532	683.8
390.936	667.8
391.339	660.4
391.743	672
392.125	671.8
392.529	684.2
392.933	692.2
393.337	682.6
393.74	669.8
394.144	677
394.548	677
394.953	671
395.357	685
395.761	676.4
396.144	672.4
396.548	675.8
396.952	683.6
397.357	676.4
397.761	674.6
398.166	675.4
398.57	679.4
398.975	666.2
399.379	687.4
399.763	732.6
400.168	677.6
400.572	682.8
400.977	676
401.382	696.2
401.787	688
402.192	697.6
402.597	695.8
403.002	662.2
403.386	686
403.791	691.8
404.197	667
404.602	672.2
405.007	684.2
405.413	668.8
405.818	682.6
406.224	669
406.608	678.4
407.014	666.4
407.42	707
407.825	673.4
408.231	689.4
408.637	680.4
409.043	693
409.449	681.2
409.834	675.4
410.24	680.6
410.646	690.6
411.052	694.6
411.458	689.8
411.865	700
412.271	683
412.677	680.8
413.062	686.6
413.469	673.6
413.875	707.8
414.282	696.4
414.689	681.8
415.095	682.8
415.502	672.8
415.888	693.4
416.294	667.2
416.701	724.2
417.108	673.4
417.515	689
417.923	669.8
418.33	707.2
418.715	695.6
419.123	684
419.53	677.8
419.937	684.8
420.345	699.4
420.752	676.6
421.16	690.4
421.546	678.8
421.953	692
422.361	673.2
422.769	679.4
423.177	672
423.585	713.2
423.992	707.6
424.379	690.6
424.787	689.4
425.195	702.4
425.603	679.6
426.011	689.2
426.419	686.4
426.806	671.4
427.214	692.4
427.623	694
428.031	691.6
428.44	681.8
428.848	688
429.235	696.2
429.644	686.2
430.053	682.2
430.461	703.2
430.87	715.8
431.279	707.6
431.666	670.4
432.075	697.4
432.484	698.6
432.893	680.8
433.302	722.6
433.711	744
434.099	694
434.508	688.8
434.918	691.2
435.327	708
435.737	704.6
436.125	702
436.534	705.2
436.944	720.8
437.353	729
437.763	738.2
438.173	716
438.561	725.8
438.971	708.8
439.381	727.8
439.791	728.6
440.201	719.8
440.589	741.8
440.999	747.6
441.409	739
441.819	737.4
442.23	764.4
442.619	767.2
443.029	750.6
443.439	763.2
443.85	772.4
444.26	788
444.649	783.6
445.06	767.4
445.471	759.4
445.881	776.2
446.292	783
446.682	805
447.092	763.6
447.503	834.6
447.914	776
448.325	787
448.715	782
449.126	772.8
449.537	778.2
449.948	784.6
450.338	786.2
450.75	790.6
451.161	791.4
451.572	800.6
451.984	786.8
452.374	772
452.786	791
453.197	802.8
453.609	806.8
453.999	779.2
454.411	787
454.823	809.6
455.235	799.2
455.647	800.2
456.037	807.6
456.449	778.8
456.862	808.6
457.274	800.8
457.665	792.6
458.077	800
458.489	828
458.902	791.8
459.293	816.4
459.705	802.8
460.118	795.4
460.53	799.6
460.921	806
461.334	798.8
461.747	798.4
462.16	807.8
462.551	817.4
462.964	819.8
463.377	784.4
463.79	806.4
464.182	824.6
464.595	805.2
465.008	828.2
465.421	819.8
465.813	805
466.226	813
466.64	799.2
467.053	858
467.445	824.8
467.859	826.2
468.272	814.4
468.686	834.6
469.078	804.4
469.492	800
469.906	810.6
470.298	823.6
470.712	802.8
471.126	882.2
471.54	805.2
471.933	803.2
472.347	810.2
472.761	805.2
473.175	797.4
473.568	807.8
473.982	799.2
474.397	816.4
474.79	814.8
475.204	810.2
475.619	806.4
476.033	809
476.426	820.4
476.841	795.2
477.256	837.8
477.649	797.8
478.064	793.6
478.479	800
478.872	797.4
479.287	784
479.702	806.8
480.118	807.8
480.511	803.6
480.927	805
481.342	799.4
481.736	810.8
482.151	796
482.566	820.4
482.96	809
483.376	812.6
483.792	797.2
484.186	799.8
484.602	802.2
485.017	810
485.412	798.8
485.827	797
486.243	795.8
486.638	824
487.054	797.6
487.47	820.2
487.865	798.6
488.281	791
488.697	783.8
489.092	791.8
489.508	781.4
489.925	806.4
490.32	784.6
490.736	800.2
491.153	794.6
491.548	788.4
491.964	803.4
492.381	767.2
492.776	794.8
493.193	782.4
493.61	802.4
494.006	785
494.422	802.8
494.84	783.4
495.235	789.2
495.652	788.4
496.069	790.4
496.465	764.6
496.883	783.8
497.3	802
497.696	778.2
498.113	777
498.509	768.4
498.927	766.4
499.344	779.6
499.741	765.4
500.158	785.6
500.576	782.2
500.973	774.2
501.39	762.2
501.787	764.4
502.205	767.8
502.623	761.8
503.02	752.8
503.438	769.6
503.856	759.6
504.253	768.6
504.671	764.4
505.068	747.4
505.486	757.8
505.905	777
506.302	753.2
506.72	770
507.118	752.6
507.536	767.6
507.955	760.6
508.352	763.8
508.771	761
509.169	754.8
509.587	746.4
510.006	756.2
510.404	741.2
510.823	748
511.221	744.2
511.64	746.2
512.038	755
512.457	749.4
512.877	743.8
513.275	749.2
513.694	749.6
514.092	736.2
514.512	749
514.91	745.8
515.33	743.2
515.749	736.2
516.148	746
516.568	749.8
516.966	741
517.386	740.8
517.785	732.6
518.205	737.4
518.603	721
519.024	730.4
519.444	747.4
519.843	740.2
520.263	749.6
520.662	735.8
521.082	731.2
521.481	738
521.902	730.6
522.301	732.4
522.722	737.8
523.121	725.6
523.542	724.6
523.963	728.8
524.362	743
524.783	732.8
525.183	728.4
525.604	720.6
526.003	724.2
526.425	718.2
526.824	732
527.246	730.2
527.646	728.8
528.067	720
528.467	722
528.888	728.4
529.289	707.2
529.71	722.8
530.11	718.2
530.532	715.8
530.932	705.4
531.354	703.4
531.755	757.2
532.176	719.6
532.577	712.8
532.999	711.8
533.4	706.2
533.822	719.4
534.223	724.2
534.645	720.4
535.046	701.2
535.468	709.2
535.869	729.4
536.292	697.8
536.693	752
537.115	708.4
537.516	701.8
537.939	707
538.34	725.4
538.742	726.6
539.165	707.6
539.566	697
539.989	700.8
540.391	709
540.814	708.2
541.216	710.8
541.639	710
542.041	715
542.464	706.8
542.866	697.2
543.268	688
543.691	720.4
544.093	708.4
544.517	729.2
544.919	692.8
545.343	729.8
545.745	691.4
546.147	706.6
546.571	705.6
546.974	695.4
547.398	705
547.8	721.4
548.224	694.6
548.627	689.2
549.03	709.2
549.454	692.2
549.857	681.4
550.281	689.2
550.684	704
551.087	714.8
551.512	704
551.915	712.4
552.34	690.6
552.743	698.2
553.146	701.8
553.571	684.6
553.975	710.4
554.399	684.6
554.803	750.8
555.207	687
555.632	679.8
556.036	691
556.461	688
556.865	693.6
557.268	693
557.694	691
558.098	702.4
558.502	695.2
558.927	683.8
559.332	688.2
559.736	693.8
560.162	686
560.566	682.2
560.992	698.4
561.396	687.8
561.801	684.4
562.227	680
562.631	683.8
563.036	688.2
563.462	697.6
563.867	681.4
564.272	674.4
564.698	689
565.103	670
565.508	702.4
565.935	679.6
566.34	687
566.745	698.2
567.172	688
567.577	700
567.982	701.2
568.409	690.4
568.815	673.6
569.22	680.2
569.626	677.4
570.053	664.8
570.459	686
570.865	677.2
571.292	686.6
571.698	683.2
572.104	657
572.531	674
572.937	693.2
573.343	671.6
573.75	673.8
574.177	682.4
574.583	695.6
574.99	680.8
575.396	681
575.824	675.8
576.231	687
576.637	671.4
577.065	701.4
577.472	668.8
577.879	681
578.286	690.6
578.714	668.4
579.121	670.6
579.528	685.4
579.935	685.8
580.364	664.8
580.771	658.2
581.178	670
581.585	673
582.014	684.4
582.421	666.8
582.829	671.2
583.236	675.4
583.644	663.2
584.073	676.4
584.481	673.8
584.889	667.4
585.296	686.8
585.726	673.6
586.134	667.4
586.542	662.2
586.95	691.8
587.358	664.6
587.787	675.8
588.196	663
588.604	664.4
589.012	672.2
589.421	662
589.851	666.8
590.259	676.2
590.668	669.4
591.076	717.4
591.485	663.6
591.894	676.4
592.324	692
592.733	698
593.142	654.4
593.551	669.2
593.96	677.2
594.369	643.2
594.8	654.4
595.209	673.4
595.618	655.4
596.028	662.2
596.437	659.6
596.847	663.4
597.256	668
597.687	677
598.097	673.2
598.507	656.4
598.917	672.6
599.327	667.6
599.736	670.2
600.146	674.4
600.556	666.8
600.988	676
601.398	659.2
601.808	679.8
602.219	655.2
602.629	667.8
603.039	668.2
603.45	702.6
603.86	667.2
604.271	684.6
604.703	670.4
605.114	662.8
605.525	672.4
605.935	670
606.346	688.8
606.757	668.4
607.168	663.6
607.579	665
607.99	688.2
608.402	671.2
608.813	683.2
609.224	656.4
609.636	665.4
610.047	665.4
610.48	664.2
610.892	669.4
611.303	685.8
611.715	660.4
612.127	657.6
612.539	660.2
612.95	676.8
613.362	651.4
613.774	649.2
614.186	653
614.599	663
615.011	681
615.423	663.4
615.835	662.6
616.248	656.2
616.66	675
617.073	657
617.485	661.4
617.898	679
618.311	661.2
618.723	658.8
619.136	702.2
619.549	689.6
619.962	693.4
620.375	659.2
620.788	671.6
621.201	659
621.614	668.6
622.028	663
622.441	662.2
622.854	671.8
623.268	651.8
623.681	667.8
624.095	663.2
624.509	669.6
624.922	678.2
625.336	646
625.728	672.6
626.142	669
626.556	679
626.97	667.6
627.384	660
627.799	670.8
628.213	669.4
628.627	670.4
629.041	655
629.456	656.8
629.87	659.4
630.285	665.4
630.699	666.2
631.093	661
631.507	670
631.922	667.4
632.337	664.2
632.752	657.2
633.167	659
633.582	651.4
633.997	650.2
634.412	657
634.806	663.6
635.221	644.4
635.637	673.4
636.052	643.6
636.468	660.4
636.883	676
637.299	669.2
637.715	648
638.109	660
638.525	651.4
638.941	672.4
639.357	666.8
639.773	668.4
640.189	656.6
640.584	664.4
641	663.4
641.416	647.8
641.832	665.6
642.249	656.2
642.665	662.6
643.06	668.6
643.477	669.8
643.894	652.2
644.31	663
644.727	664
645.123	667
645.54	657.4
645.957	658
646.374	680.8
646.77	668
647.187	688
647.604	667.4
648.021	641.2
648.439	659.2
648.835	661.8
649.252	659
649.67	657.2
650.088	660.4
650.484	664
650.902	674.6
651.32	669
651.738	657.6
652.134	660.8
652.552	688.8
652.971	670.4
653.389	653.8
653.786	679.4
654.204	693
654.622	653.2
655.019	660.6
655.438	664.2
655.857	666.8
656.275	674.6
656.673	648.2
657.091	741.4
657.51	657.4
657.908	663
658.327	681.6
658.746	643.8
659.144	659.4
659.563	671.6
659.982	662
660.38	649.6
660.8	670.8
661.219	673.2
661.617	670
662.037	659.2
662.457	682
662.855	647.4
663.275	703.4
663.695	663.8
664.094	661.2
664.514	660.8
664.934	650.4
665.333	668
665.753	653.8
666.152	645.2
666.572	647.6
666.993	678.4
667.392	653
667.812	669
668.212	653.4
668.632	662.4
669.053	652.4
669.453	667
669.874	658.8
670.273	665
670.694	654.2
671.116	669.8
671.515	662.8
671.937	673.6
672.337	654
672.758	656.4
673.158	665
673.58	648.6
673.98	660
674.402	667
674.824	651.4
675.224	649.4
675.646	643.6
676.047	646.2
676.469	659.4
676.869	670
677.292	651
677.693	652.8
678.115	648.4
678.516	659.4
678.939	668.2
679.34	651.6
679.762	673.4
680.164	665.6
680.586	651
680.988	658.2
681.411	688.8
681.812	646.4
682.236	654
682.637	647.8
683.061	646
683.462	653.2
683.864	648.6
684.288	658.2
684.69	650
685.114	670.4
685.516	671.4
685.94	648.4
686.342	660.4
686.766	655.4
687.168	648.8
687.571	673.2
687.995	657.2
688.398	647.4
688.822	653
689.225	681.6
689.628	683.4
690.052	664.8
690.456	660.6
690.88	653.8
691.284	651.8
691.687	664.6
692.112	642.4
692.515	651
692.919	659.4
693.344	659
693.747	647.6
694.173	659.4
694.577	673.8
694.98	651.8
695.406	657.2
695.81	666
696.214	663.4
696.64	660
697.044	661.8
697.448	667.6
697.874	659.2
698.279	655.4
698.684	638
699.11	647.8
699.514	650.2
699.919	658
700.324	646.4
700.75	658.8
701.156	659
701.561	658.8
701.987	658.2
702.393	665.4
702.798	674
703.203	652.8
703.63	655.8
704.036	653.4
704.442	653.6
704.847	646.8
705.274	661.4
705.68	669.2
706.086	664.8
706.492	652.8
706.92	655.4
707.326	669.8
707.732	655.2
708.139	652.8
708.545	651.6
708.973	659.2
709.38	659.6
709.786	639.6
710.193	675.4
710.6	656.4
711.028	648.4
711.435	649.6
711.842	662.8
712.249	658.8
712.656	664.8
713.064	667
713.492	659.2
713.9	662
714.307	665.6
714.715	657.6
715.123	665.4
715.53	651.2
715.938	673
716.367	658.4
716.775	661.6
717.184	641.8
717.592	656.8
718	666.4
718.408	692.6
718.816	705.4
719.225	664.4
719.633	659.2
720.042	646
720.472	658.6
720.881	670
721.29	656.8
721.699	642
722.108	663.6
722.517	658.8
722.926	648.4
723.335	672.6
723.744	651
724.154	662.6
724.563	654.6
724.973	661.6
725.382	659.8
725.792	662
726.202	649.8
726.612	685
727.022	659.8
727.432	650.2
779.813	656.2
780.223	710
780.634	656.8
781.044	647.6
781.454	653
781.865	662
782.276	645.2
782.686	666.2
783.097	649.6
783.508	661.6
783.919	656.4
784.33	661.8
784.741	675.4
785.152	644.2
785.563	640.2
785.974	642.4
786.386	670
786.776	656
787.188	646
787.599	644.8
788.011	661.8
788.423	654.2
788.835	655.6
789.247	643.6
789.659	646
790.071	644.6
790.483	702.6
790.874	644.8
791.286	651.2
791.699	647.4
792.111	654.6
792.524	655.4
792.937	651.2
793.349	637.2
793.741	642.8
794.154	642
794.567	666.2
794.98	649
795.393	636.4
795.785	671.8
796.198	651.4
796.612	650
797.026	649.6
797.439	631.6
797.831	653.6
798.245	644
798.659	644.6
799.073	651
799.487	640
799.88	649.4
800.294	649.2
800.708	648.4
801.123	655.6
801.516	671.4
801.93	641
802.345	641.4
802.76	650.8
803.153	664.6
803.568	671
803.983	657
804.377	655.8
804.792	638.6
805.207	643.2
805.601	664.2
806.016	692
806.432	643.8
806.826	695.8
807.242	677.8
807.658	657.6
808.052	654.8
808.468	653.6
808.884	640.6
809.279	651
809.695	658.8
810.111	683.8
810.506	656.6
810.922	673.6
811.339	650.4
811.734	667.4
812.151	655.2
812.546	645.4
812.963	646.6
813.38	654.8
813.776	651.8
814.193	675
814.589	651.8
815.006	653.6
815.402	632.4
815.82	644.8
816.237	651.4
816.633	663
817.051	642
817.448	656.2
817.866	642
818.262	669.6
818.68	643.2
819.077	653.4
819.495	653.6
819.892	689.2
820.311	648.2
820.708	646.6
821.127	638.4
821.524	670.6
821.943	651.8
822.34	672.6
822.759	656
823.157	647.8
823.576	670.6
823.974	668.6
824.393	732.6
824.791	649.8
825.189	648.2
825.609	650
826.007	658.2
826.427	641.6
826.826	654.8
827.246	651
827.644	633.6
828.043	662.4
828.463	650.2
828.862	654.2
829.261	667.6
829.682	634.6
830.081	655.6
830.502	639.2
830.901	657.2
831.301	648.6
831.722	636
832.121	642.8
832.521	641.4
832.943	643
833.342	653.4
833.742	651.2
834.164	650.2
834.564	645
834.965	650.4
835.386	652.8
835.787	652.2
836.188	652.2
836.588	652
837.01	656.2
837.411	644.6
837.812	662
838.213	656.6
838.636	643
839.037	727.4
839.438	654.8
839.84	653.2
840.263	660
840.664	665
841.066	650.8
841.468	660.4
841.891	637.4
842.293	664.8
842.695	657.2
843.098	655
843.5	649.2
843.902	656.8
844.326	652.2
844.729	652.6
845.131	666.6
845.534	664.6
845.937	661.8
846.34	676
846.764	640.8
847.167	654.8
847.571	641
847.974	643.6
848.377	649.4
848.781	716.6
849.184	663.2
849.588	651.8
849.992	650.4
850.396	654
850.821	674.4
851.225	655
851.63	650.4
852.034	664.8
852.438	646
852.843	697.6
853.247	639.4
853.652	648.8
854.057	669.6
854.462	651.8
854.867	648.4
855.272	682.4
855.677	654.2
856.082	644
856.487	632.6
856.893	652.2
857.298	649.2
857.704	636.6
858.11	654.8
858.516	655.6
858.922	650.4
859.328	657.4
859.734	651.2
860.14	660.6
860.525	657.4
860.931	652.8
861.338	653.8
861.745	660
862.151	667
862.558	648.8
862.965	643.8
863.372	648.6
863.779	643.2
864.186	674.4
864.572	656
864.98	665.2
865.387	686.2
865.795	644.4
866.203	663.2
866.61	645.4
867.018	659.4
867.405	664
867.813	647
868.221	651
868.63	648
869.038	667
869.425	694.2
869.834	654.8
870.243	639
870.652	636.6
871.039	647.2
871.448	652.2
871.857	649.4
872.266	655.8
872.654	659.4
873.064	643.8
873.473	657.4
873.883	644.2
874.271	645.4
874.681	664
875.091	640.6
875.48	660.6
875.89	669.4
876.3	642.8
876.689	638.4
877.1	646.4
877.51	650
877.9	675
878.31	641.8
878.721	685
879.111	661.4
879.522	643.4
879.933	639.6
880.323	634.4
880.734	630.6
881.125	656.8
881.536	644.6
881.948	646.2
882.338	651.4
882.75	657.2
883.141	642
883.553	659.8
883.944	675.8
884.356	656.8
884.769	659
885.16	641.2
885.573	652.6
885.964	652.2
886.377	650.4
886.768	639.4
887.181	642.4
887.573	646.8
887.987	659.6
888.378	662.4
888.792	652.4
889.184	692
889.598	637.2
889.99	650.2
890.383	650.4
890.797	641.2
891.19	663.4
891.604	639.2
891.997	636.4
892.411	637.4
892.805	646
893.198	643.6
893.613	636.6
894.006	648.4
894.421	641.6
894.815	641.2
895.209	639
895.624	689.2
896.018	667.6
896.412	640.4
896.828	645.4
897.222	655.8
897.617	656.8
898.033	672.6
898.427	655.2
898.822	637.2
899.239	640.8
899.634	635
900.029	665.8
900.424	655.6
900.841	639.2
901.236	654.6
901.632	654.8
902.027	717.6
902.445	663.2
902.841	642.6
903.237	644.2
903.633	669.4
904.05	657.6
904.447	653.4
904.843	660.2
905.24	651.8
905.636	639
906.033	642.4
906.451	658.8
906.848	636
907.246	639
907.643	652.8
908.04	655
908.438	673.2
908.835	662.8
909.254	648.2
909.652	659
910.05	649.6
910.448	641.6
910.846	649
911.244	641
911.643	649.2
912.041	652.2
912.44	664
912.839	640.6
913.237	650
913.636	643.2
914.035	665
914.434	641.2
914.834	667
915.233	658
915.633	644
916.032	641.2
916.432	646.6
916.832	663.4
917.232	652
917.632	634.6
918.032	653.8
918.432	645.4
918.833	652.2
919.233	647.4
919.634	640.4
920.035	656.2
920.436	643.6
920.837	662
921.238	647.4
921.639	649.6
922.019	648.6
922.42	654.8
922.822	655.6
923.224	644.4
923.625	644.4
924.027	648
924.429	663
924.81	646.4
925.212	657.2
925.615	651.4
926.017	655.2
926.42	654.2
926.801	648.8
927.204	653.4
927.607	652.4
928.01	667.4
928.413	646.4
928.795	630
929.199	644
929.602	640.4
930.006	631.6
930.388	635
930.792	648.4
931.196	643.4
931.579	684
931.983	640.4
932.388	690.4
932.771	640.6
933.176	634.8
933.58	656
933.964	658.8
934.369	633.2
934.774	650
935.158	647.4
935.563	645.4
935.947	642
936.353	658.4
936.759	644.4
937.143	662
937.549	646.8
937.934	663.4
938.34	670
938.746	638.2
939.131	638
939.538	637
939.923	652.4
940.33	642.8
940.716	644
941.123	644.2
941.508	654.6
941.916	665
942.302	644.8
942.709	633.4
943.096	639.6
943.503	650.2
943.89	659.4
944.298	638
944.685	679.4
945.072	643.4
945.48	658.8
945.867	641.4
946.276	639.6
946.663	685
947.051	667.4
947.46	656
947.848	654.4
948.257	648.4
948.645	646.8
949.033	644.2
949.443	644
949.831	692.8
950.22	643.2
950.63	655.6
951.018	680
951.407	640.2
951.796	640.2
952.207	643.4
952.596	655.8
952.985	647
953.375	699.8
953.786	654
954.176	646.4
954.566	651.6
954.956	629.4
955.367	637.8
955.758	673
956.148	639.8
956.539	653
956.929	638
957.341	636.4
957.732	647.4
958.123	655.8
958.515	637.8
958.906	653.6
959.297	647.6
959.689	641.4
960.102	635.6
960.494	653.6
960.886	635.4
961.278	638.6
961.67	676
962.062	688.2
962.455	643.2
962.847	635
963.24	646.2
963.633	647.6
964.026	637
964.419	647.4
964.812	655.6
965.206	650.8
965.599	649.4
965.993	643.2
966.386	642.2
966.78	660.6
967.174	659.8
967.569	640.2
967.963	636.6
968.357	638.4
968.752	643.4
969.146	652.6
969.541	634.2
969.936	648.2
970.331	647.6
970.705	650.2
971.1	644.8
971.496	662.8
971.892	644.8
972.287	641.4
972.683	644.2
973.079	646.8
973.454	662.8
973.85	649.8
974.247	657.6
974.643	683.8
975.04	649.8
975.415	656.4
975.812	633
976.209	651.8
976.607	642.6
976.982	650.4
977.38	667.8
977.778	646.4
978.175	649.6
978.552	654.8
978.95	653.2
979.348	651.2
979.725	696
980.123	644.6
980.522	644.2
980.899	649.4
981.298	643.6
981.697	646.8
982.075	643.4
982.474	641.4
982.852	647.4
983.251	659.2
983.651	645.6
984.029	644.4
984.429	653.2
984.808	639.8
985.208	646
985.609	640.2
985.987	630.2
986.388	636.4
986.768	645.2
987.168	646.6
987.548	647
987.949	653.4
988.329	647.6
988.731	629.2
989.111	652.6
989.491	631.4
989.893	651.6
990.273	656.2
990.676	639.8
991.057	641
991.459	638.2
991.84	647.4
992.221	628.4
992.624	654.8
993.006	649
993.388	643.6
993.791	650.8
994.173	646.8
994.576	684.4
994.959	637.6
995.341	634.8
995.724	637.8
996.128	641
996.511	641.4
996.894	639.2
997.298	634.4
997.681	645.4
998.065	647.2
998.448	638.6
998.854	652.6
999.237	634.8
999.621	653.6
1000.01	661
1000.39	647.4
1000.8	644
1001.18	651.2
1001.56	652.4
1001.95	662
1002.33	653.8
1002.72	639.4
1003.13	638.2
1003.51	640.8
1003.9	648
1004.28	669
1004.67	643
1005.06	643.6
1005.44	684.8
1005.83	627
1006.21	644.2
1006.6	641.2
1006.99	658
1007.37	656.4
1007.76	649.8
1060.12	639.6
1060.51	630
1060.89	657
1061.28	654.4
1061.67	656
1062.06	653.2
1062.45	648.8
1062.83	633.6
1063.22	648.8
1063.61	688.6
1064	653.4
1064.39	644.6
1064.78	639.2
1065.14	657.6
1065.53	649.4
1065.92	643.4
1066.31	649.6
1066.7	650.6
1067.09	660.6
1067.46	648.8
1067.85	647.8
1068.24	646.4
1068.63	658
1069.02	640.6
1069.39	650.4
1069.78	637.4
1070.17	644.2
1070.57	636.6
1070.93	642
1071.33	631.6
1071.72	649.2
1072.11	643.6
1072.48	638.4
1072.87	633.2
1073.26	632.6
1073.64	633
1074.03	634.6
1074.4	646.6
1074.79	638.6
1075.19	640.2
1075.56	645.6
1075.95	644
1076.34	649.2
1076.72	636.6
1077.11	654.8
1077.48	664.4
1077.88	653.4
1078.25	638.2
1078.64	649.6
1079.02	641
1079.41	656.8
1079.78	635.4
1080.18	642.2
1080.55	722.2
1080.95	638.4
1081.32	633
1081.72	643.8
1082.09	652
1082.49	634.2
1082.86	639.6
1083.24	626.2
1083.63	624.4
1084.01	643.4
1084.38	656.6
1084.78	637.8
1085.16	648.8
1085.55	658.4
1085.93	658
1086.31	631.4
1086.7	670
1087.08	640.4
1087.46	641.8
1087.83	637.4
1088.23	652.6
1088.61	641.6
1088.99	641.8
1089.36	638.6
1089.76	645.4
1090.14	631.8
1090.52	638
1090.9	637
1091.27	639
1091.67	670.2
1092.05	649.6
1092.43	641.4
1092.81	649
1093.19	648.8
1093.57	641.4
1093.95	640.6
1094.35	655
1094.73	638.8
1095.11	636.4
1095.49	637.4
1095.87	648
1096.25	656.4
1096.63	657.8
1097.01	642.4
1097.39	655
1097.77	644.2
1098.15	642.8
1098.53	634.8
1098.91	644.2
1099.29	639.8
1099.68	664
1100.06	647.4
1100.44	640.4
1100.82	645.4
1101.18	646.6
1101.56	640.8
1101.95	631.6
1102.33	637.8
1102.71	644.8
1103.1	627.6
1103.48	633.6
1103.86	630
1104.22	647.4
1104.61	638.4
1104.99	643
1105.38	630.4
1105.76	644
1106.12	646
1106.51	682.4
1106.89	656.4
1107.26	647.6
1107.64	650.2
1108.03	635.6
1108.41	650
1108.78	649
1109.16	634.8
1109.55	652.2
1109.91	635.8
1110.3	627.4
1110.69	651.4
1111.05	641
1111.44	639.4
1111.8	642.6
1112.19	650.2
1112.58	640.8
1112.94	655.8
1113.33	646.4
1113.7	629.2
1114.09	635
1114.45	638.4
1114.84	646
1115.21	643.2
1115.6	632.8
1115.96	656.4
1116.35	649.8
1116.72	636
1117.11	656
1117.48	635
1117.85	642.8
1118.24	662.2
1118.6	642.4
1118.99	630.8
1119.36	651.8
1119.73	648.8
1120.12	643
1120.49	630.4
1120.86	650.4
1121.25	648.8
1121.62	627.4
1121.99	642.8
1122.38	658.8
1122.76	648.8
1123.13	636.4
1123.5	651.2
1123.89	661
1124.26	638.6
1124.63	645.6
1125	650.8
1125.4	626.8
1125.77	644
1126.14	627.6
1126.51	638.8
1126.88	648.6
1127.26	630.4
1127.63	629.8
1128.02	637.4
1128.4	637.2
1128.77	646.8
1129.14	647
1129.52	640
1129.89	649
1130.26	632.6
1130.64	634.6
1131.01	635.6
