#lambda/nm	C1
208.295	530.8
208.67	486.2
209.045	445.2
209.419	447
209.794	681.2
210.169	658.6
210.544	798.4
210.919	685.8
211.295	671.8
211.67	682
212.045	667.2
212.421	679.8
212.796	717
213.172	671.2
213.547	683.4
213.923	675.8
214.299	671.4
214.675	687.4
215.051	685
215.427	692.6
215.803	696.8
216.179	686.4
216.555	680.4
216.932	686.6
217.308	676.8
217.684	678.2
218.061	685.2
218.438	679
218.814	677.8
219.191	692
219.568	679.4
219.945	682.2
220.322	693.8
220.699	689.6
221.076	685.6
221.453	687
221.83	677.6
222.208	680.8
222.585	680.2
222.962	678
223.34	688
223.717	674.6
224.095	682.4
224.473	683
224.851	682.8
225.229	671
225.607	701
225.985	670
226.363	688.6
226.741	688.2
227.119	679.8
227.497	692.4
227.876	673.2
228.254	687
228.633	688.6
229.011	677.4
229.39	675.4
229.769	687.4
230.148	683.4
230.527	709.4
230.905	687
231.284	679.8
231.664	679.2
232.043	694.4
232.422	688.2
232.801	685.2
233.181	694.6
233.56	674.2
233.94	678.4
234.319	665.8
234.699	672
235.079	727.6
235.458	732.8
235.838	704.2
236.218	677.8
236.598	676.8
236.978	678.4
237.358	669.6
237.738	673.4
238.119	684.8
238.499	675.4
238.88	695.4
239.26	705.2
239.641	669.8
240.021	674.4
240.402	682.6
240.783	682.8
241.163	679.6
241.544	683.4
241.925	676.6
242.306	697.8
242.687	667.6
243.069	691.6
243.45	692.8
243.831	679.4
244.212	676.4
244.594	726.4
244.975	698.6
245.357	684.8
245.739	675.2
246.12	686.2
246.502	699
246.884	682
247.266	687.4
247.648	689.4
248.03	701.8
248.412	686.2
248.794	695.4
249.176	678.2
249.559	701.6
249.941	677.4
250.323	666.6
250.706	673.6
251.089	689.6
251.471	688.4
251.854	678.6
252.237	688
252.62	690
253.002	683.6
253.385	683
253.769	705.4
254.152	682
254.535	686.2
254.918	675
255.301	675.4
255.685	673.4
256.068	670.6
256.452	703.2
256.835	696.2
257.219	681.6
257.603	705.2
257.986	674
258.37	685.4
258.754	665.2
259.138	691.8
259.522	698
259.906	677.4
260.29	682.2
260.675	684.6
261.059	689
261.443	670
261.828	681.2
262.212	689.8
262.597	664.2
262.981	677.4
263.366	685.6
263.751	690.6
264.136	682.4
264.521	682.2
264.906	678.8
265.291	691.8
265.676	675.8
266.061	686.2
266.446	701.2
266.831	692.4
267.217	709.6
267.602	685.6
267.987	683.4
268.373	681.4
268.759	695.2
269.144	688.4
269.53	679.6
269.916	682.2
270.302	679.8
270.688	696.2
271.074	677.6
271.46	704.2
271.846	723.6
272.232	682
272.618	679.4
273.004	676.6
273.391	694.8
273.777	694.4
274.164	690.6
274.55	704.4
274.937	699.8
275.324	689.8
275.71	696.8
276.097	699.4
276.484	675
276.871	683.8
277.258	681.6
277.645	669.4
278.032	680.8
278.419	677.6
278.807	683.2
279.194	680.6
279.581	669.8
279.969	689.4
280.356	684.6
280.744	683.6
281.131	706.4
281.519	693
281.907	678.6
282.295	681
282.682	698.8
283.07	693
283.458	692.8
283.846	692.4
284.235	693.8
284.623	692.8
285.011	677
285.399	684.8
285.788	689
286.176	673.4
286.565	697.6
286.953	674
287.342	678.2
287.731	674.4
288.119	681.2
288.508	676.2
288.897	683
289.286	670.2
289.675	680.2
290.064	698.2
290.453	680.8
290.821	688.6
291.21	695.4
291.599	675.6
291.989	668
292.378	692.2
292.768	698.8
293.157	681
293.547	686.4
293.936	671.2
294.326	669
294.716	679.4
295.106	670.8
295.496	686.2
295.886	685.8
296.276	674.4
296.666	672.8
297.056	669.2
297.446	665
297.836	692
298.227	679.2
298.617	688.2
299.008	697.4
299.398	677.2
299.789	676
300.179	691.2
300.57	693.8
300.961	686
301.352	673.6
301.742	695
302.133	680
302.524	674.8
302.915	682.2
303.307	672
303.698	686.6
304.089	684.6
304.48	681.8
304.872	683.4
305.263	679.6
305.655	678.6
306.046	693.4
306.438	692.2
306.829	673.4
307.221	702.6
307.613	693.6
308.005	697.6
308.397	704
308.789	705.2
309.181	714.8
309.573	710
309.965	692.6
310.357	682.6
310.749	699.8
311.142	676.8
311.534	687.8
311.926	700.2
312.319	686.2
312.711	673.4
313.104	704.8
313.497	689.8
313.889	720.6
314.282	707.4
314.675	713.2
315.068	684.2
315.461	689.2
315.854	723
316.247	697
316.64	684.6
317.033	688.6
317.405	693.6
317.798	687.2
318.192	700.6
318.585	676.4
318.979	695.4
319.372	675.4
319.766	691
320.16	702.8
320.553	713
320.947	705.4
321.341	687
321.735	687.2
322.129	673.2
322.523	716.2
322.917	678
323.311	695.6
323.705	696.4
324.099	694.8
324.494	705.6
324.888	703.4
325.282	681.2
325.677	702.4
326.071	693.8
326.466	698.6
326.861	692
327.255	701.6
327.65	706.8
328.045	705.4
328.44	686
328.835	688.4
329.23	681.6
329.625	720.2
330.02	684
330.415	712.6
330.81	686
331.206	691
331.601	694
331.996	692.8
332.37	712.6
332.766	671.4
333.161	714.2
333.557	685
333.953	689.2
334.348	1018.2
334.744	686.8
335.14	679.8
335.536	684.8
335.932	696
336.328	687
336.724	698.4
337.12	683.2
337.516	688.2
337.913	688.8
338.309	700
338.705	687
339.102	695.4
339.498	676.6
339.895	695
340.291	671
340.688	692.6
341.085	676
341.481	694.8
341.878	682.6
342.275	706.8
342.672	674
343.069	689.4
343.466	672.8
343.842	694.2
344.239	679.8
344.636	687.4
345.033	684.8
345.431	670.8
345.828	691.2
346.225	687
346.623	722.2
347.02	686.8
347.418	694
347.816	696.6
348.213	674.2
348.611	692.8
349.009	672.2
349.407	698.6
349.805	678.2
350.203	670.6
350.601	696.8
350.999	676
351.397	752
351.795	685.4
352.193	699.4
352.57	696.6
352.969	702.8
353.367	676.8
353.766	670
354.164	679.8
354.563	695
354.961	682.8
355.36	680
355.759	680.4
356.158	667.8
356.557	675.8
356.956	671
357.355	670.8
357.754	689.4
358.153	678.2
358.552	703.2
358.951	678.2
359.35	695.8
359.75	681.4
360.149	671.8
360.527	663.4
360.926	668.4
361.326	683.4
361.726	677
362.125	665.2
362.525	685.8
362.925	681
363.325	677
363.724	684.8
364.124	675
364.524	660
364.924	669.8
365.324	691.4
365.725	659.4
366.125	684
366.525	676
366.904	672.4
367.304	654.2
367.705	693.6
368.105	694
368.506	683.2
368.906	682
369.307	674.4
369.708	684
370.108	664.6
370.509	689.4
370.91	675.4
371.311	678.6
371.712	680
372.113	671.4
372.514	653.8
372.894	679.6
373.295	666.4
373.696	677.6
374.097	689.8
374.499	714.6
374.9	688.2
375.301	676.8
375.703	681.8
376.105	667.4
376.506	688.6
376.908	682.2
377.309	683.2
377.711	682.2
378.113	672.6
378.493	675.8
378.895	671.4
379.297	695.6
379.699	667
380.102	679.6
380.504	682
380.906	675.8
381.308	708
381.71	671.2
382.113	687.4
382.515	676.8
382.918	675
383.299	674
383.701	690.6
384.104	682.2
384.507	664.2
384.909	669.4
385.312	666.8
385.715	671.2
386.118	677.2
386.521	668.2
386.924	684.6
387.327	676.8
387.709	661.6
388.112	652.2
388.515	664.2
388.918	676.2
389.322	682.6
389.725	669.4
390.129	701.8
390.532	674.2
390.936	670.8
391.339	671.4
391.743	680.6
392.125	675.4
392.529	692.6
392.933	687.8
393.337	682.4
393.74	677.4
394.144	676.2
394.548	664
394.953	671
395.357	677.4
395.761	672.8
396.144	669.6
396.548	669.2
396.952	673.8
397.357	676.2
397.761	660.4
398.166	669.4
398.57	669.4
398.975	656.2
399.379	681.8
399.763	729.4
400.168	672
400.572	665.6
400.977	675.4
401.382	691.8
401.787	690.8
402.192	689.4
402.597	693
403.002	663.4
403.386	692.8
403.791	693.4
404.197	668.8
404.602	673.8
405.007	673.6
405.413	667.8
405.818	681.8
406.224	662
406.608	670.6
407.014	667
407.42	687.2
407.825	666.8
408.231	681
408.637	677.8
409.043	698.8
409.449	663.4
409.834	666.4
410.24	677
410.646	690.6
411.052	681.4
411.458	678.2
411.865	680.8
412.271	678
412.677	670.6
413.062	687.8
413.469	677.4
413.875	705.8
414.282	685.8
414.689	680.2
415.095	688.6
415.502	672.2
415.888	678.2
416.294	664.2
416.701	731
417.108	676.8
417.515	689
417.923	670.6
418.33	706.2
418.715	690.8
419.123	673.8
419.53	675.2
419.937	687
420.345	696.4
420.752	672.2
421.16	690.2
421.546	680
421.953	685.6
422.361	680
422.769	677.4
423.177	679
423.585	710.8
423.992	704.8
424.379	690.4
424.787	689.2
425.195	701.2
425.603	679
426.011	691.6
426.419	699.6
426.806	682.2
427.214	685.8
427.623	690
428.031	704.6
428.44	686.4
428.848	700.2
429.235	698.2
429.644	683.2
430.053	678.6
430.461	697.6
430.87	716.6
431.279	697.2
431.666	677.8
432.075	684.4
432.484	687
432.893	684.6
433.302	705
433.711	741.8
434.099	688.2
434.508	676
434.918	674.4
435.327	693.8
435.737	678.2
436.125	684.4
436.534	687.2
436.944	683.6
437.353	683
437.763	702.6
438.173	675
438.561	693
438.971	666.4
439.381	675
439.791	681.8
440.201	658
440.589	684.2
440.999	682
441.409	678
441.819	662.4
442.23	697
442.619	683.8
443.029	670.6
443.439	674
443.85	694
444.26	695.2
444.649	679
445.06	672.8
445.471	671.2
445.881	675.2
446.292	689.4
446.682	691.8
447.092	663
447.503	728.8
447.914	669
448.325	667.8
448.715	670.8
449.126	664.8
449.537	678.8
449.948	676.8
450.338	672.4
450.75	690.6
451.161	681.6
451.572	684.8
451.984	675.2
452.374	662.2
452.786	671
453.197	672.8
453.609	678.2
453.999	655.6
454.411	663
454.823	689.4
455.235	672.8
455.647	671
456.037	675.6
456.449	663.2
456.862	676
457.274	681.2
457.665	660.6
458.077	678.6
458.489	707
458.902	667
459.293	679.4
459.705	678.6
460.118	679.6
460.53	667.6
460.921	672.2
461.334	678.2
461.747	676
462.16	692.4
462.551	681.8
462.964	666.6
463.377	658.2
463.79	675.2
464.182	677.4
464.595	679.4
465.008	679.8
465.421	674.2
465.813	673.2
466.226	678.6
466.64	661.4
467.053	718.6
467.445	686
467.859	693.8
468.272	665.4
468.686	681.6
469.078	670.6
469.492	656.6
469.906	669
470.298	678
470.712	665.4
471.126	736.2
471.54	653.6
471.933	659.8
472.347	669
472.761	665.2
473.175	656.4
473.568	667.4
473.982	657.4
474.397	663
474.79	669.8
475.204	676
475.619	665.2
476.033	671.2
476.426	671
476.841	672.4
477.256	697
477.649	658.8
478.064	658
478.479	662
478.872	658.8
479.287	650.4
479.702	656.2
480.118	674.2
480.511	666.6
480.927	670.4
481.342	658.4
481.736	670.2
482.151	658.6
482.566	679.2
482.96	678.4
483.376	682.2
483.792	663.2
484.186	668.2
484.602	662.6
485.017	667.8
485.412	670
485.827	682
486.243	669.4
486.638	698
487.054	684
487.47	685.8
487.865	665.6
488.281	661
488.697	659.6
489.092	663.4
489.508	657
489.925	684
490.32	656.6
490.736	670.2
491.153	665.4
491.548	667.2
491.964	685.6
492.381	649.8
492.776	663.4
493.193	668.2
493.61	676.8
494.006	674.8
494.422	680.8
494.84	655.6
495.235	674.4
495.652	669.4
496.069	675.2
496.465	660
496.883	666.8
497.3	700.8
497.696	663.6
498.113	676.8
498.509	646.4
498.927	662.6
499.344	669.8
499.741	661.4
500.158	669.6
500.576	682.8
500.973	665.8
501.39	657
501.787	655.2
502.205	658.8
502.623	655.8
503.02	644.4
503.438	649.2
503.856	662.6
504.253	659.8
504.671	651.2
505.068	655.6
505.486	661
505.905	676.8
506.302	669.4
506.72	670.8
507.118	654.4
507.536	665.8
507.955	666.6
508.352	666.4
508.771	673.6
509.169	670.4
509.587	662.6
510.006	663.2
510.404	654.6
510.823	652.4
511.221	661.2
511.64	666.2
512.038	678.8
512.457	663.2
512.877	660.8
513.275	662.8
513.694	665
514.092	659.2
514.512	670
514.91	662.2
515.33	668.2
515.749	663.6
516.148	667.8
516.568	673
516.966	662.8
517.386	657.8
517.785	666
518.205	662.8
518.603	664
519.024	664.8
519.444	668
519.843	676.6
520.263	677.2
520.662	668.2
521.082	667
521.481	670.4
521.902	657.2
522.301	670.8
522.722	662.4
523.121	661.4
523.542	666
523.963	666.2
524.362	671.2
524.783	670
525.183	677.4
525.604	673.6
526.003	655.8
526.425	658.2
526.824	677.2
527.246	670.4
527.646	673.6
528.067	671.6
528.467	666.4
528.888	677.6
529.289	662
529.71	668.4
530.11	670.6
530.532	662.6
530.932	652.8
531.354	646
531.755	702.6
532.176	676
532.577	667
532.999	664.2
533.4	668.4
533.822	671.8
534.223	665.8
534.645	665.2
535.046	662.2
535.468	668.6
535.869	673.6
536.292	661.8
536.693	700.8
537.115	665.4
537.516	667.6
537.939	660
538.34	684.4
538.742	678.6
539.165	661.6
539.566	669.6
539.989	665.8
540.391	652
540.814	661.6
541.216	664.2
541.639	660.4
542.041	679
542.464	668.8
542.866	660.2
543.268	646.4
543.691	670.6
544.093	669.8
544.517	688
544.919	663.8
545.343	692
545.745	650.4
546.147	663.4
546.571	658.2
546.974	652.6
547.398	671
547.8	676
548.224	662
548.627	651.2
549.03	670.6
549.454	652.2
549.857	647.4
550.281	652
550.684	654.8
551.087	677
551.512	659.4
551.915	666
552.34	657.4
552.743	662.2
553.146	666.8
553.571	668
553.975	687.8
554.399	658.2
554.803	713.4
555.207	664.8
555.632	659.8
556.036	668
556.461	654.6
556.865	671.6
557.268	652
557.694	659.2
558.098	672.6
558.502	663.6
558.927	653.2
559.332	666.2
559.736	659
560.162	669.8
560.566	665.2
560.992	671
561.396	664.4
561.801	656.8
562.227	656
562.631	656.4
563.036	671.2
563.462	676
563.867	662.8
564.272	647.4
564.698	665
565.103	654.4
565.508	685.8
565.935	662
566.34	655.2
566.745	676
567.172	658
567.577	686
567.982	678.2
568.409	662.8
568.815	656.8
569.22	670
569.626	669.2
570.053	641.6
570.459	673.6
570.865	670.8
571.292	666.6
571.698	660.8
572.104	644.6
572.531	660.4
572.937	669.2
573.343	665.2
573.75	658
574.177	662.6
574.583	672
574.99	659.6
575.396	675.2
575.824	651.6
576.231	664.6
576.637	658.6
577.065	688.8
577.472	664.4
577.879	666.6
578.286	679.8
578.714	649.2
579.121	655.6
579.528	661.2
579.935	669.6
580.364	657.4
580.771	645.2
581.178	648.2
581.585	659.8
582.014	666
582.421	659.4
582.829	656.6
583.236	667
583.644	656.4
584.073	659.8
584.481	656.6
584.889	654.8
585.296	675.2
585.726	660
586.134	652.8
586.542	658.4
586.95	676.2
587.358	648.8
587.787	671.6
588.196	644.8
588.604	658.2
589.012	667.4
589.421	658.4
589.851	654
590.259	660.8
590.668	660.6
591.076	700.2
591.485	647.8
591.894	661.4
592.324	674.4
592.733	674
593.142	651.4
593.551	655.8
593.96	703
594.369	649.2
594.8	653.6
595.209	660.4
595.618	643
596.028	654.8
596.437	648.4
596.847	659.2
597.256	657.6
597.687	663.4
598.097	670.6
598.507	652.8
598.917	658.4
599.327	666
599.736	661.4
600.146	672.8
600.556	666.8
600.988	676
601.398	657.4
601.808	677
602.219	645.8
602.629	674
603.039	665.6
603.45	688.6
603.86	660
604.271	675.2
604.703	661
605.114	658.6
605.525	659.2
605.935	658.8
606.346	677.6
606.757	659.2
607.168	656
607.579	656.8
607.99	673.6
608.402	659.2
608.813	659.8
609.224	649.6
609.636	646.8
610.047	646
610.48	661.8
610.892	660.6
611.303	671.8
611.715	655.4
612.127	644
612.539	654.8
612.95	655.2
613.362	641.8
613.774	638.8
614.186	649.2
614.599	648.4
615.011	663.2
615.423	659.2
615.835	651.6
616.248	647.8
616.66	652.4
617.073	650.6
617.485	658.4
617.898	664
618.311	648.6
618.723	663.4
619.136	694.8
619.549	673
619.962	686
620.375	651.8
620.788	664.4
621.201	648.4
621.614	673.6
622.028	656.4
622.441	666.2
622.854	669.6
623.268	650.6
623.681	662.2
624.095	667.6
624.509	673.8
624.922	667.8
625.336	645.6
625.728	661.8
626.142	666.2
626.556	676.8
626.97	672.6
627.384	650.2
627.799	662.8
628.213	674.6
628.627	656.4
629.041	656.6
629.456	652
629.87	659.2
630.285	663.8
630.699	667.4
631.093	653.2
631.507	665.8
631.922	672.4
632.337	682.2
632.752	651.4
633.167	666.8
633.582	656.4
633.997	656
634.412	660
634.806	664.8
635.221	651.4
635.637	673.6
636.052	637.2
636.468	656.4
636.883	676.4
637.299	663
637.715	635.6
638.109	655.4
638.525	652.2
638.941	673
639.357	661
639.773	675
640.189	652.2
640.584	656.2
641	665
641.416	648.8
641.832	653.6
642.249	658.6
642.665	662.6
643.06	664.4
643.477	671.6
643.894	642.8
644.31	657.4
644.727	654.4
645.123	658.4
645.54	649.4
645.957	659.8
646.374	674
646.77	663
647.187	680.8
647.604	653.4
648.021	648
648.439	652.8
648.835	665.4
649.252	656.4
649.67	659.4
650.088	655
650.484	655.6
650.902	658.6
651.32	661.2
651.738	653.8
652.134	660.6
652.552	671.2
652.971	661.4
653.389	652.6
653.786	673.4
654.204	688.4
654.622	644.4
655.019	658.8
655.438	659.2
655.857	658.2
656.275	659.8
656.673	651.6
657.091	744.8
657.51	648.2
657.908	667
658.327	675.8
658.746	647.8
659.144	655.2
659.563	670.4
659.982	662.6
660.38	650
660.8	660
661.219	666.6
661.617	669.4
662.037	659
662.457	673.2
662.855	640.6
663.275	691.2
663.695	660.4
664.094	646.8
664.514	655.6
664.934	648.8
665.333	670
665.753	655.4
666.152	653.6
666.572	646.2
666.993	670.8
667.392	655.4
667.812	653.8
668.212	649.6
668.632	663.6
669.053	649.4
669.453	671
669.874	665
670.273	662.4
670.694	647
671.116	670.4
671.515	668.2
671.937	658.6
672.337	641.8
672.758	650.6
673.158	661.2
673.58	640
673.98	658.6
674.402	666.2
674.824	657.4
675.224	642.8
675.646	648.4
676.047	652.6
676.469	650.8
676.869	661.8
677.292	655
677.693	649
678.115	650
678.516	665.2
678.939	654.2
679.34	654.6
679.762	669.4
680.164	661.2
680.586	646.4
680.988	662.6
681.411	687.8
681.812	652
682.236	645.6
682.637	647.8
683.061	640.6
683.462	655.6
683.864	649
684.288	663.2
684.69	649.2
685.114	663.6
685.516	661.2
685.94	646.4
686.342	666.2
686.766	650.4
687.168	659.4
687.571	676
687.995	660.8
688.398	643.8
688.822	661.6
689.225	676.4
689.628	679
690.052	657
690.456	664.6
690.88	651.8
691.284	644
691.687	655
692.112	648.6
692.515	650.6
692.919	660.4
693.344	661.4
693.747	654.6
694.173	641.8
694.577	677.4
694.98	657.2
695.406	651
695.81	661
696.214	657.8
696.64	659.2
697.044	661
697.448	675.8
697.874	650
698.279	652.6
698.684	646.2
699.11	649.4
699.514	647.2
699.919	655
700.324	650
700.75	664.6
701.156	652.6
701.561	677.2
701.987	659.8
702.393	669.8
702.798	664.2
703.203	657.8
703.63	652.2
704.036	659
704.442	665.8
704.847	647.2
705.274	652.4
705.68	661.4
706.086	666.8
706.492	653.8
706.92	644
707.326	660.6
707.732	654.2
708.139	639.8
708.545	643.4
708.973	647
709.38	648.4
709.786	644
710.193	664.2
710.6	653
711.028	639.2
711.435	645.2
711.842	650.4
712.249	644.4
712.656	652.8
713.064	671
713.492	642.4
713.9	651.8
714.307	658.4
714.715	650.8
715.123	655.4
715.53	653.8
715.938	656.2
716.367	649.2
716.775	651.8
717.184	634.8
717.592	653.6
718	665.6
718.408	697.6
718.816	695.4
719.225	657.4
719.633	654
720.042	644.2
720.472	648.4
720.881	671
721.29	654.6
721.699	645
722.108	664.4
722.517	649.8
722.926	652.4
723.335	662.2
723.744	655
724.154	654.6
724.563	657.4
724.973	657.8
725.382	664.2
725.792	646.8
726.202	643
726.612	681.8
727.022	656.2
727.432	652.8
779.813	648.2
780.223	700
780.634	654.4
781.044	650.8
781.454	651.4
781.865	666
782.276	644.4
782.686	666.6
783.097	659
783.508	652.8
783.919	659.4
784.33	667.6
784.741	664.8
785.152	646.8
785.563	636.4
785.974	650.4
786.386	657.4
786.776	649.2
787.188	654.4
787.599	637.4
788.011	662.6
788.423	659.4
788.835	653.4
789.247	650.8
789.659	649.2
790.071	645.2
790.483	701.4
790.874	647.4
791.286	650.8
791.699	642.8
792.111	663.6
792.524	660.2
792.937	649.2
793.349	639.2
793.741	639.8
794.154	650.2
794.567	670.2
794.98	655.2
795.393	639.4
795.785	670.2
796.198	650.6
796.612	647
797.026	649.2
797.439	642.2
797.831	653.6
798.245	647.2
798.659	648.4
799.073	649.8
799.487	639.4
799.88	647.2
800.294	654.8
800.708	661.2
801.123	649.2
801.516	671.8
801.93	639.2
802.345	640.4
802.76	652.4
803.153	666.6
803.568	675.4
803.983	661.6
804.377	659.4
804.792	638.2
805.207	632.6
805.601	645.8
806.016	694.8
806.432	649.8
806.826	687.6
807.242	665
807.658	650.6
808.052	641.4
808.468	640.4
808.884	647.2
809.279	648.6
809.695	664.8
810.111	678.4
810.506	650.6
810.922	678.6
811.339	655.4
811.734	658.8
812.151	648.6
812.546	645.8
812.963	639.8
813.38	659.8
813.776	658.2
814.193	679.2
814.589	639.6
815.006	651.2
815.402	641.4
815.82	645.4
816.237	661
816.633	655.4
817.051	643.4
817.448	655.2
817.866	646.8
818.262	673.4
818.68	640.6
819.077	645.8
819.495	643.6
819.892	696.6
820.311	644.4
820.708	653.8
821.127	650
821.524	661.8
821.943	649.6
822.34	670.4
822.759	656
823.157	655.2
823.576	659.4
823.974	665
824.393	785.8
824.791	644.4
825.189	642.8
825.609	644.4
826.007	656.2
826.427	635
826.826	650.6
827.246	650.4
827.644	645.4
828.043	667
828.463	644.8
828.862	654
829.261	657.4
829.682	634.6
830.081	659.8
830.502	636.4
830.901	645.6
831.301	649.6
831.722	636.6
832.121	650.6
832.521	644.8
832.943	651.2
833.342	653.4
833.742	643.4
834.164	641.6
834.564	642.2
834.965	648.4
835.386	656.2
835.787	641.2
836.188	640.8
836.588	647.8
837.01	647.6
837.411	643.6
837.812	665
838.213	655.4
838.636	646
839.037	724
839.438	650.6
839.84	649.8
840.263	659.2
840.664	649.6
841.066	655.4
841.468	654.4
841.891	644.8
842.293	655.6
842.695	658
843.098	658
843.5	639.2
843.902	660.8
844.326	650.6
844.729	661.8
845.131	666.8
845.534	658.2
845.937	670.2
846.34	677
846.764	645
847.167	658
847.571	643.6
847.974	652.2
848.377	652.8
848.781	708.8
849.184	667.8
849.588	644.2
849.992	651.8
850.396	646.8
850.821	675.4
851.225	648.8
851.63	648.8
852.034	655.6
852.438	645.8
852.843	797.2
853.247	640
853.652	645.4
854.057	670.8
854.462	656.6
854.867	651.4
855.272	681.6
855.677	656.4
856.082	644.8
856.487	648.8
856.893	659.8
857.298	656
857.704	648
858.11	643.8
858.516	660.4
858.922	650.6
859.328	664
859.734	660.6
860.14	650.6
860.525	645
860.931	648.2
861.338	644.2
861.745	643.2
862.151	652.6
862.558	648.2
862.965	644.2
863.372	628.2
863.779	634.2
864.186	674.4
864.572	657.4
864.98	658
865.387	682
865.795	640.2
866.203	654.8
866.61	639.6
867.018	658.6
867.405	650.6
867.813	649.8
868.221	646.2
868.63	652.2
869.038	655.4
869.425	688
869.834	641.6
870.243	641
870.652	650.4
871.039	645.8
871.448	644.2
871.857	654.4
872.266	653
872.654	642.8
873.064	646.4
873.473	653.8
873.883	641.8
874.271	638.2
874.681	657.8
875.091	637.4
875.48	657
875.89	666.8
876.3	634.8
876.689	640.8
877.1	642.2
877.51	649.8
877.9	666.4
878.31	651.6
878.721	678.8
879.111	650.6
879.522	641.2
879.933	631.4
880.323	636.2
880.734	638.8
881.125	649.8
881.536	647.6
881.948	646.8
882.338	644.2
882.75	668
883.141	646.2
883.553	656.8
883.944	678
884.356	658.2
884.769	654.8
885.16	638.2
885.573	651.4
885.964	644
886.377	643.2
886.768	640.6
887.181	648
887.573	638.8
887.987	661.6
888.378	663
888.792	650
889.184	699.4
889.598	648.2
889.99	655.8
890.383	647.8
890.797	639.2
891.19	660.6
891.604	649.4
891.997	634.6
892.411	641
892.805	645
893.198	649
893.613	636.4
894.006	645.4
894.421	642.8
894.815	642.4
895.209	643.6
895.624	691.4
896.018	667.4
896.412	657.4
896.828	645.8
897.222	653.6
897.617	650
898.033	673.4
898.427	647.8
898.822	646.2
899.239	634.8
899.634	643.8
900.029	677
900.424	640.4
900.841	636.8
901.236	659.2
901.632	654.8
902.027	711
902.445	661
902.841	653.6
903.237	646.4
903.633	672.8
904.05	657.4
904.447	653
904.843	660
905.24	652
905.636	623.4
906.033	646.8
906.451	661.8
906.848	638.4
907.246	654.4
907.643	654
908.04	648.8
908.438	661.6
908.835	647.6
909.254	652.2
909.652	649
910.05	638.2
910.448	647.8
910.846	646
911.244	643.8
911.643	649.6
912.041	642.4
912.44	669.4
912.839	642
913.237	646.2
913.636	640.6
914.035	655.4
914.434	642
914.834	664.4
915.233	663.6
915.633	650.2
916.032	645
916.432	634.8
916.832	665.6
917.232	647
917.632	640.2
918.032	653
918.432	641.4
918.833	649.4
919.233	644.8
919.634	628.8
920.035	657.4
920.436	643.2
920.837	656.6
921.238	643.8
921.639	646.2
922.019	649.6
922.42	646.6
922.822	657.2
923.224	648
923.625	644.6
924.027	650.6
924.429	672.6
924.81	646.4
925.212	652.4
925.615	647.6
926.017	651.8
926.42	662
926.801	649.6
927.204	649
927.607	652.4
928.01	664.8
928.413	658.6
928.795	633
929.199	650.8
929.602	639.4
930.006	634.4
930.388	642.6
930.792	649
931.196	646.4
931.579	684.2
931.983	630.2
932.388	696.8
932.771	635
933.176	633.4
933.58	654.6
933.964	650
934.369	624
934.774	639.4
935.158	648.2
935.563	652.4
935.947	642.8
936.353	647.2
936.759	644.6
937.143	649
937.549	655
937.934	658
938.34	662.4
938.746	633.8
939.131	638.8
939.538	637.6
939.923	656.6
940.33	638.8
940.716	643.8
941.123	649.8
941.508	648.8
941.916	677
942.302	646.2
942.709	637.4
943.096	630.8
943.503	648
943.89	650.8
944.298	640.8
944.685	683
945.072	650
945.48	661.4
945.867	635.4
946.276	638.8
946.663	674.4
947.051	669.8
947.46	670.6
947.848	652.6
948.257	639.4
948.645	643
949.033	638.2
949.443	639.2
949.831	688.8
950.22	637.8
950.63	656.8
951.018	680.8
951.407	649.2
951.796	633.6
952.207	653.4
952.596	658.4
952.985	642.6
953.375	695.6
953.786	651.6
954.176	639.6
954.566	651.4
954.956	636
955.367	639.8
955.758	672
956.148	636.4
956.539	657.8
956.929	644.4
957.341	636.8
957.732	642
958.123	658.2
958.515	644.6
958.906	654.8
959.297	651.4
959.689	649.6
960.102	631.6
960.494	648.2
960.886	647.8
961.278	637.4
961.67	669.4
962.062	678.4
962.455	649.6
962.847	638.2
963.24	643.8
963.633	649
964.026	626
964.419	643.8
964.812	647.6
965.206	642.6
965.599	641.4
965.993	639
966.386	642.8
966.78	657.2
967.174	653.2
967.569	634
967.963	638.2
968.357	634
968.752	636
969.146	631
969.541	636.8
969.936	649.8
970.331	644.4
970.705	643.2
971.1	633
971.496	658.8
971.892	639.8
972.287	637
972.683	643
973.079	644.6
973.454	661.4
973.85	646.8
974.247	653.2
974.643	665
975.04	652.8
975.415	648.8
975.812	632
976.209	642.8
976.607	632.8
976.982	651.8
977.38	664.6
977.778	642.6
978.175	640.2
978.552	653.4
978.95	652.4
979.348	651.6
979.725	698.2
980.123	638.8
980.522	643
980.899	644.8
981.298	641.6
981.697	639.8
982.075	643.4
982.474	637.8
982.852	641.4
983.251	643.4
983.651	637.4
984.029	648.6
984.429	657.6
984.808	634.8
985.208	644
985.609	642.8
985.987	631
986.388	632.8
986.768	647.6
987.168	645.4
987.548	649
987.949	652.2
988.329	654.4
988.731	625.2
989.111	644.4
989.491	640
989.893	645.8
990.273	658
990.676	647.6
991.057	632.2
991.459	640.8
991.84	639
992.221	638
992.624	661.8
993.006	645
993.388	643.4
993.791	657
994.173	650
994.576	688.8
994.959	632.2
995.341	636.8
995.724	639
996.128	647.8
996.511	652.2
996.894	634.6
997.298	643.4
997.681	650.2
998.065	655.2
998.448	638.8
998.854	658.8
999.237	634.4
999.621	660
1000.01	663.6
1000.39	645.2
1000.8	646.4
1001.18	655
1001.56	652.4
1001.95	654
1002.33	645
1002.72	634.8
1003.13	651
1003.51	640.8
1003.9	654.2
1004.28	664.4
1004.67	631.6
1005.06	643.8
1005.44	677.8
1005.83	632.2
1006.21	638.4
1006.6	632.8
1006.99	655.4
1007.37	647.4
1007.76	647.6
1060.12	644.6
1060.51	638.4
1060.89	644.4
1061.28	648
1061.67	660
1062.06	656
1062.45	639.4
1062.83	638.8
1063.22	650.2
1063.61	691.8
1064	654.6
1064.39	640.4
1064.78	649.4
1065.14	649.2
1065.53	651.2
1065.92	646.2
1066.31	642
1066.7	653.4
1067.09	663.8
1067.46	659.6
1067.85	640
1068.24	642.8
1068.63	648.6
1069.02	638.8
1069.39	645.6
1069.78	632.6
1070.17	646.6
1070.57	637.4
1070.93	647.6
1071.33	639.6
1071.72	653
1072.11	640.8
1072.48	642
1072.87	655.6
1073.26	640.8
1073.64	641.8
1074.03	630
1074.4	635.6
1074.79	641.4
1075.19	643.6
1075.56	651.8
1075.95	650.4
1076.34	639.4
1076.72	643.2
1077.11	661.6
1077.48	659.2
1077.88	649.8
1078.25	643.8
1078.64	651.8
1079.02	642.4
1079.41	646.6
1079.78	631.6
1080.18	626.8
1080.55	720.2
1080.95	643.8
1081.32	633.8
1081.72	646
1082.09	638
1082.49	636.2
1082.86	642.2
1083.24	636
1083.63	631
1084.01	637.6
1084.38	652.8
1084.78	643.8
1085.16	645
1085.55	654.8
1085.93	658.8
1086.31	634.4
1086.7	683.2
1087.08	647
1087.46	640.2
1087.83	633.4
1088.23	654.8
1088.61	643.6
1088.99	644.2
1089.36	641
1089.76	634.8
1090.14	640.2
1090.52	647.6
1090.9	642.8
1091.27	648.6
1091.67	677
1092.05	651.6
1092.43	642.8
1092.81	647.8
1093.19	652.8
1093.57	635.2
1093.95	645.6
1094.35	659.6
1094.73	664.8
1095.11	633.6
1095.49	642.6
1095.87	630.4
1096.25	656.8
1096.63	652.4
1097.01	636.6
1097.39	648.8
1097.77	643
1098.15	652
1098.53	636
1098.91	642.8
1099.29	644.4
1099.68	662.8
1100.06	645.2
1100.44	652.2
1100.82	647.2
1101.18	644
1101.56	643.6
1101.95	637.8
1102.33	647.4
1102.71	652.2
1103.1	637.4
1103.48	629.2
1103.86	630.4
1104.22	650.4
1104.61	637.8
1104.99	631
1105.38	629.8
1105.76	651
1106.12	642
1106.51	677.6
1106.89	648.8
1107.26	647.8
1107.64	650
1108.03	640.6
1108.41	649.2
1108.78	647.6
1109.16	642.2
1109.55	648
1109.91	632
1110.3	629.2
1110.69	650.8
1111.05	633.2
1111.44	636.2
1111.8	635.2
1112.19	646.8
1112.58	640.2
1112.94	627
1113.33	632
1113.7	636.4
1114.09	629.6
1114.45	628.6
1114.84	631.6
1115.21	640.6
1115.6	646.4
1115.96	641.2
1116.35	639.4
1116.72	631
1117.11	649
1117.48	638.4
1117.85	632.2
1118.24	666.6
1118.6	645.2
1118.99	636.8
1119.36	643
1119.73	645.6
1120.12	646.8
1120.49	629.2
1120.86	643
1121.25	628.8
1121.62	633.6
1121.99	642.4
1122.38	653.6
1122.76	648
1123.13	640.2
1123.5	650.2
1123.89	655.8
1124.26	634.2
1124.63	644
1125	640.6
1125.4	625
1125.77	638.8
1126.14	623.6
1126.51	641.2
1126.88	641.6
1127.26	637.2
1127.63	619.4
1128.02	635.6
1128.4	643.8
1128.77	637
1129.14	635.2
1129.52	644.4
1129.89	641.2
1130.26	636.4
1130.64	626.6
1131.01	637
