#lambda/nm	C1
208.295	540.2
208.67	491.2
209.045	452.6
209.419	453.4
209.794	679.6
210.169	666.2
210.544	814.6
210.919	690.6
211.295	683.2
211.67	700.2
212.045	694
212.421	683.2
212.796	734.4
213.172	683
213.547	680.6
213.923	681.2
214.299	680.4
214.675	695.4
215.051	683.6
215.427	697.4
215.803	705.4
216.179	682.6
216.555	679.2
216.932	688
217.308	689.4
217.684	686
218.061	695
218.438	695
218.814	681.4
219.191	686.8
219.568	677.2
219.945	682.4
220.322	690.4
220.699	689.2
221.076	698.8
221.453	695.2
221.83	675.2
222.208	677
222.585	683.8
222.962	680
223.34	694
223.717	684.8
224.095	682.4
224.473	694.2
224.851	669.8
225.229	678.4
225.607	703.6
225.985	673.8
226.363	688.4
226.741	687.6
227.119	684.8
227.497	705.6
227.876	681
228.254	698.6
228.633	693.4
229.011	686.2
229.39	701
229.769	682.4
230.148	695
230.527	717.8
230.905	687.8
231.284	692.2
231.664	687.6
232.043	697
232.422	698.6
232.801	685.4
233.181	697.2
233.56	685.8
233.94	691.8
234.319	667
234.699	686
235.079	734
235.458	734.2
235.838	716.2
236.218	678.2
236.598	673.4
236.978	678
237.358	678.6
237.738	678.8
238.119	700.6
238.499	678.8
238.88	691.4
239.26	716.8
239.641	677.2
240.021	676
240.402	687
240.783	678.4
241.163	686.8
241.544	692.6
241.925	692.8
242.306	711.4
242.687	688.2
243.069	690.8
243.45	703.2
243.831	681
244.212	682.8
244.594	736.6
244.975	701.2
245.357	694
245.739	684
246.12	699.8
246.502	708.8
246.884	697.4
247.266	689.8
247.648	690.8
248.03	715.8
248.412	697.6
248.794	699.6
249.176	691.4
249.559	695.6
249.941	680.8
250.323	684.2
250.706	679.4
251.089	691.4
251.471	692.8
251.854	685
252.237	688
252.62	700
253.002	690.2
253.385	677.8
253.769	706.8
254.152	691.2
254.535	699.4
254.918	677.2
255.301	680.6
255.685	686.6
256.068	673.8
256.452	722.2
256.835	702.8
257.219	696
257.603	702
257.986	684
258.37	698
258.754	685.2
259.138	693.6
259.522	707.6
259.906	691.8
260.29	691.8
260.675	685.8
261.059	684.6
261.443	677.6
261.828	700.2
262.212	696.4
262.597	665.6
262.981	687
263.366	698.6
263.751	693.4
264.136	686.8
264.521	681.8
264.906	681.6
265.291	699.2
265.676	676.2
266.061	697.6
266.446	703.6
266.831	689.4
267.217	719.6
267.602	695
267.987	693
268.373	685.2
268.759	700.6
269.144	696.6
269.53	696.6
269.916	686.8
270.302	685
270.688	690.8
271.074	691.4
271.46	702.6
271.846	732
272.232	692
272.618	692
273.004	691.8
273.391	703.2
273.777	700.6
274.164	687
274.55	706.8
274.937	698.4
275.324	689
275.71	703.6
276.097	703
276.484	680.4
276.871	706.8
277.258	690.8
277.645	680.8
278.032	690.4
278.419	686.8
278.807	702.6
279.194	676.8
279.581	678.8
279.969	680.6
280.356	689.4
280.744	694.8
281.131	716.4
281.519	698
281.907	685.6
282.295	680.6
282.682	697
283.07	698.6
283.458	701.4
283.846	701.6
284.235	705.6
284.623	704.2
285.011	680.4
285.399	694.2
285.788	692.4
286.176	676.2
286.565	709.4
286.953	688.6
287.342	684.4
287.731	686.4
288.119	676.2
288.508	685.2
288.897	689.4
289.286	672.4
289.675	699
290.064	707.8
290.453	691
290.821	693.4
291.21	714.2
291.599	683.8
291.989	697.6
292.378	699.8
292.768	711.6
293.157	696.8
293.547	699
293.936	685.4
294.326	682.2
294.716	697.4
295.106	682
295.496	711.2
295.886	704.8
296.276	685.6
296.666	684.4
297.056	680.2
297.446	674.4
297.836	707.2
298.227	685.2
298.617	687.6
299.008	702.4
299.398	696.2
299.789	677.4
300.179	702.6
300.57	708.6
300.961	681.6
301.352	683.4
301.742	706
302.133	685.4
302.524	688.8
302.915	692.6
303.307	679.6
303.698	701.8
304.089	690.6
304.48	691
304.872	699.8
305.263	698.2
305.655	680.6
306.046	689.4
306.438	693.8
306.829	691
307.221	711.4
307.613	698.8
308.005	699.4
308.397	703.2
308.789	722.8
309.181	717.4
309.573	715.4
309.965	711.8
310.357	698.2
310.749	711.8
311.142	676.4
311.534	694.6
311.926	707.8
312.319	688.4
312.711	671.2
313.104	714.2
313.497	687
313.889	734
314.282	722
314.675	720.6
315.068	692
315.461	691.6
315.854	733
316.247	701
316.64	700
317.033	700.6
317.405	712.8
317.798	688.8
318.192	696.8
318.585	688.8
318.979	696.4
319.372	687
319.766	681.8
320.16	702.8
320.553	717.4
320.947	708.8
321.341	689
321.735	687.2
322.129	677.4
322.523	717.4
322.917	682.2
323.311	706.4
323.705	695.6
324.099	698.6
324.494	709
324.888	709
325.282	689.6
325.677	704
326.071	705.4
326.466	721
326.861	693
327.255	713.2
327.65	701.6
328.045	703.6
328.44	696.6
328.835	703.8
329.23	682.8
329.625	718.2
330.02	686.8
330.415	717.6
330.81	695.2
331.206	700.2
331.601	696.8
331.996	711.2
332.37	720.2
332.766	685.6
333.161	712.2
333.557	686.2
333.953	694.2
334.348	1024.8
334.744	696.8
335.14	692
335.536	690.6
335.932	707.8
336.328	700.2
336.724	706.2
337.12	696
337.516	692.8
337.913	695.6
338.309	705.6
338.705	695.2
339.102	701
339.498	695.6
339.895	708.6
340.291	690.6
340.688	707.6
341.085	686.6
341.481	689.6
341.878	685.4
342.275	715.2
342.672	687
343.069	692.2
343.466	678.2
343.842	700.6
344.239	684.8
344.636	681.8
345.033	680.2
345.431	688
345.828	687.4
346.225	688
346.623	727.2
347.02	690.6
347.418	700.8
347.816	712
348.213	671.2
348.611	704.6
349.009	689.6
349.407	717
349.805	685.2
350.203	672.4
350.601	707.2
350.999	685.6
351.397	758.2
351.795	690.4
352.193	700.2
352.57	691.8
352.969	712.8
353.367	689.4
353.766	686.6
354.164	694.8
354.563	704.6
354.961	699.2
355.36	696.4
355.759	694.2
356.158	678.4
356.557	682.4
356.956	672
357.355	684
357.754	691
358.153	690.6
358.552	720.2
358.951	689.6
359.35	699
359.75	678.8
360.149	675.6
360.527	675.8
360.926	681.8
361.326	686.4
361.726	688.6
362.125	680
362.525	704
362.925	686.6
363.325	690
363.724	694.8
364.124	677.6
364.524	672
364.924	689
365.324	697.2
365.725	670.2
366.125	689.8
366.525	681.6
366.904	676.6
367.304	660.4
367.705	710.4
368.105	703.2
368.506	690
368.906	684.2
369.307	689.8
369.708	687.8
370.108	675.8
370.509	697.2
370.91	675.2
371.311	689
371.712	685.6
372.113	685.4
372.514	672.4
372.894	686
373.295	685.2
373.696	694.2
374.097	693
374.499	723.4
374.9	693.6
375.301	682.6
375.703	691.2
376.105	669
376.506	693.8
376.908	692
377.309	690.6
377.711	689.4
378.113	684
378.493	692.2
378.895	681.2
379.297	689
379.699	672.6
380.102	697.2
380.504	695.6
380.906	687.8
381.308	711.8
381.71	681.6
382.113	696
382.515	687
382.918	681.2
383.299	687
383.701	691.4
384.104	692.6
384.507	662.2
384.909	685
385.312	657.6
385.715	670
386.118	678
386.521	664
386.924	694.8
387.327	686
387.709	671.2
388.112	663.4
388.515	683.8
388.918	685.2
389.322	676.4
389.725	676.4
390.129	710.6
390.532	685.4
390.936	678
391.339	677.4
391.743	692
392.125	680
392.529	696.4
392.933	701.6
393.337	682.2
393.74	682.6
394.144	689.8
394.548	674.4
394.953	687.6
395.357	694.4
395.761	672.6
396.144	682
396.548	673.6
396.952	684.6
397.357	681.4
397.761	684.6
398.166	686.6
398.57	687
398.975	674.6
399.379	687.4
399.763	738
400.168	684.2
400.572	679.2
400.977	677.8
401.382	701
401.787	689.8
402.192	699.4
402.597	697.6
403.002	670
403.386	700
403.791	700.4
404.197	669.2
404.602	679.4
405.007	683.2
405.413	678.4
405.818	682.4
406.224	681.4
406.608	676.8
407.014	670.6
407.42	706
407.825	682.6
408.231	691.8
408.637	688.8
409.043	701.6
409.449	681.4
409.834	678.2
410.24	689.8
410.646	703.8
411.052	691.8
411.458	695.2
411.865	695.6
412.271	696.4
412.677	682
413.062	698.6
413.469	685.6
413.875	711.4
414.282	694.4
414.689	685.8
415.095	698.4
415.502	682.4
415.888	683
416.294	675.4
416.701	735.8
417.108	679.4
417.515	700.8
417.923	672.6
418.33	704
418.715	694.4
419.123	681.8
419.53	682.8
419.937	696.2
420.345	708.4
420.752	677.8
421.16	702.4
421.546	700.8
421.953	692.6
422.361	685.2
422.769	686.8
423.177	675.4
423.585	711.4
423.992	705.8
424.379	710.8
424.787	697.4
425.195	706
425.603	686.8
426.011	707.2
426.419	704.4
426.806	684.8
427.214	693
427.623	701.6
428.031	711.4
428.44	691.8
428.848	709
429.235	705.4
429.644	688
430.053	685
430.461	710.8
430.87	711.6
431.279	704.6
431.666	686.8
432.075	687.4
432.484	690
432.893	691.2
433.302	710
433.711	744.4
434.099	688.4
434.508	689.4
434.918	680.2
435.327	697.8
435.737	687.2
436.125	690
436.534	687.6
436.944	694.4
437.353	681.4
437.763	712.4
438.173	684.8
438.561	700
438.971	664
439.381	685.8
439.791	691.4
440.201	663.6
440.589	685.6
440.999	695.6
441.409	686.2
441.819	674.8
442.23	698.8
442.619	695.4
443.029	685.2
443.439	687.8
443.85	705.2
444.26	709.2
444.649	695.2
445.06	683.4
445.471	680.4
445.881	686
446.292	709
446.682	707.4
447.092	666.4
447.503	748.2
447.914	678.8
448.325	686
448.715	682.2
449.126	680.2
449.537	685.2
449.948	685.6
450.338	686
450.75	688.4
451.161	685.2
451.572	697.4
451.984	686.2
452.374	670.4
452.786	679.6
453.197	682.4
453.609	696.6
453.999	665.6
454.411	678.6
454.823	688.8
455.235	688
455.647	684.8
456.037	686.2
456.449	660.6
456.862	684.2
457.274	687.8
457.665	673.4
458.077	680.6
458.489	714.2
458.902	679
459.293	690.8
459.705	678.4
460.118	679.8
460.53	688.8
460.921	683.2
461.334	685.6
461.747	680.8
462.16	697.6
462.551	704
462.964	688.6
463.377	668.4
463.79	691.4
464.182	687.4
464.595	675.2
465.008	687.6
465.421	687.6
465.813	683.6
466.226	684.8
466.64	684.2
467.053	732.8
467.445	696.2
467.859	692
468.272	686
468.686	693.6
469.078	673.6
469.492	666.8
469.906	679.8
470.298	692.4
470.712	667
471.126	740.4
471.54	660.8
471.933	671.6
472.347	672.6
472.761	669.8
473.175	667.6
473.568	675
473.982	664.8
474.397	676.6
474.79	676.4
475.204	684.4
475.619	678.8
476.033	678.2
476.426	672.6
476.841	667.6
477.256	710.2
477.649	674.6
478.064	677.6
478.479	668.4
478.872	671.4
479.287	658.8
479.702	669.4
480.118	682.6
480.511	681.6
480.927	672.6
481.342	668.4
481.736	689
482.151	672.4
482.566	695.8
482.96	675.8
483.376	689.2
483.792	673.8
484.186	682.4
484.602	677.8
485.017	684.4
485.412	679
485.827	682.4
486.243	681.4
486.638	690
487.054	683.8
487.47	700.4
487.865	673.8
488.281	671.8
488.697	671
489.092	672.8
489.508	669.8
489.925	691.8
490.32	667.8
490.736	676.8
491.153	684
491.548	675.2
491.964	681.4
492.381	657
492.776	683
493.193	675.4
493.61	684
494.006	681
494.422	680.8
494.84	666.8
495.235	691.4
495.652	685.2
496.069	674.6
496.465	670.6
496.883	672.8
497.3	715.4
497.696	674.2
498.113	686.6
498.509	671.6
498.927	668.4
499.344	666.6
499.741	666.8
500.158	682.4
500.576	689.4
500.973	673.4
501.39	667
501.787	670.6
502.205	683
502.623	669.6
503.02	664.6
503.438	671.4
503.856	676.2
504.253	678.4
504.671	678.8
505.068	666.2
505.486	667.4
505.905	690.6
506.302	680.8
506.72	680.8
507.118	655.4
507.536	677.8
507.955	663.6
508.352	664
508.771	677.2
509.169	683.6
509.587	667
510.006	672.8
510.404	663.8
510.823	664
511.221	661
511.64	673
512.038	688.8
512.457	675.4
512.877	676.2
513.275	671.2
513.694	675.8
514.092	661.4
514.512	668.8
514.91	662.4
515.33	676.8
515.749	681.4
516.148	681.2
516.568	673
516.966	662.4
517.386	675.8
517.785	671.8
518.205	671.4
518.603	669.6
519.024	667.6
519.444	673.6
519.843	684
520.263	682
520.662	673.6
521.082	665.6
521.481	677
521.902	676.2
522.301	676.6
522.722	676.6
523.121	663.8
523.542	663.2
523.963	670.2
524.362	676.4
524.783	677.4
525.183	680.6
525.604	673.2
526.003	665.6
526.425	668.8
526.824	684
527.246	689
527.646	684.4
528.067	685
528.467	675.6
528.888	673.4
529.289	671.2
529.71	675.8
530.11	671.8
530.532	681.6
530.932	664.2
531.354	664
531.755	712.4
532.176	681.4
532.577	666.8
532.999	663.2
533.4	675.8
533.822	681.6
534.223	673.6
534.645	661.4
535.046	669.2
535.468	674.8
535.869	685.4
536.292	663
536.693	712
537.115	667
537.516	659
537.939	665.2
538.34	695.2
538.742	683
539.165	674.4
539.566	673
539.989	661.2
540.391	665
540.814	675.4
541.216	675.6
541.639	667.8
542.041	680.2
542.464	667.8
542.866	657.2
543.268	659
543.691	685.6
544.093	684.6
544.517	703.6
544.919	664.2
545.343	705.2
545.745	666
546.147	671.2
546.571	673.8
546.974	664.2
547.398	675.4
547.8	700
548.224	668
548.627	659.4
549.03	681.6
549.454	664.6
549.857	661.8
550.281	680.2
550.684	668.2
551.087	684
551.512	678.6
551.915	680.8
552.34	678.2
552.743	675.8
553.146	677.2
553.571	677.4
553.975	696.8
554.399	668.2
554.803	735.4
555.207	668.6
555.632	663.8
556.036	680.8
556.461	664.4
556.865	671.8
557.268	664.4
557.694	681.4
558.098	690
558.502	672.2
558.927	667.6
559.332	677.2
559.736	669.6
560.162	679.8
560.566	672
560.992	679
561.396	687.4
561.801	682.6
562.227	675.2
562.631	670.2
563.036	669.8
563.462	685.2
563.867	673.6
564.272	654.8
564.698	683.4
565.103	661.6
565.508	697
565.935	673.4
566.34	669.2
566.745	688
567.172	669.8
567.577	705.8
567.982	685.4
568.409	677.4
568.815	665.6
569.22	676.8
569.626	674.8
570.053	666.2
570.459	683.6
570.865	679.2
571.292	672.8
571.698	682.6
572.104	655.8
572.531	666.6
572.937	677.6
573.343	668.4
573.75	666.4
574.177	666.6
574.583	680.4
574.99	671
575.396	675.6
575.824	673.8
576.231	677.4
576.637	665.4
577.065	697.4
577.472	675.8
577.879	679.8
578.286	693.8
578.714	663.8
579.121	666.4
579.528	671
579.935	674
580.364	664.6
580.771	651.8
581.178	664.6
581.585	673.8
582.014	674.2
582.421	670.4
582.829	665.6
583.236	689.4
583.644	670
584.073	670.2
584.481	667.8
584.889	667.4
585.296	669.2
585.726	666.8
586.134	660
586.542	669.4
586.95	690.6
587.358	664
587.787	664.2
588.196	661.2
588.604	665
589.012	668.2
589.421	655.2
589.851	660
590.259	676.2
590.668	664.2
591.076	710.4
591.485	651.2
591.894	662.8
592.324	684
592.733	684
593.142	658.4
593.551	656.6
593.96	714.4
594.369	660.2
594.8	654.6
595.209	665
595.618	651.6
596.028	661.4
596.437	655.6
596.847	671.6
597.256	668
597.687	669.8
598.097	669.4
598.507	655.6
598.917	673
599.327	668.2
599.736	669
600.146	678
600.556	678.6
600.988	694
601.398	657.6
601.808	677.4
602.219	651.8
602.629	675.4
603.039	677.4
603.45	708.8
603.86	671.4
604.271	688.8
604.703	672.6
605.114	675.4
605.525	671.2
605.935	674.4
606.346	697
606.757	679.6
607.168	668.4
607.579	668.6
607.99	684.2
608.402	678.6
608.813	672.8
609.224	662.4
609.636	657.4
610.047	657.4
610.48	669.8
610.892	680.4
611.303	676.2
611.715	669.2
612.127	663.2
612.539	659.4
612.95	663.8
613.362	656.4
613.774	644
614.186	659.2
614.599	663
615.011	669.6
615.423	665.2
615.835	663.8
616.248	653.8
616.66	667.8
617.073	653.2
617.485	667
617.898	677.2
618.311	666.8
618.723	665.2
619.136	690.4
619.549	688.2
619.962	691.4
620.375	662.6
620.788	688
621.201	660.4
621.614	672.8
622.028	661.6
622.441	673.8
622.854	682
623.268	658
623.681	669
624.095	672.8
624.509	677.8
624.922	677.2
625.336	666.8
625.728	668
626.142	680.8
626.556	692.8
626.97	675.2
627.384	665.8
627.799	671
628.213	679.2
628.627	665.8
629.041	664.8
629.456	664.2
629.87	670.2
630.285	673.6
630.699	685.8
631.093	666.4
631.507	679.8
631.922	672
632.337	684.6
632.752	655.8
633.167	661.4
633.582	671.6
633.997	659.6
634.412	659.6
634.806	675.4
635.221	648.4
635.637	672.2
636.052	661
636.468	673
636.883	690.2
637.299	660
637.715	643.4
638.109	666.2
638.525	655.8
638.941	679.8
639.357	672.2
639.773	672.8
640.189	658.8
640.584	668.2
641	661
641.416	652.4
641.832	666.2
642.249	657.8
642.665	654.4
643.06	668.8
643.477	674.2
643.894	643.4
644.31	665.6
644.727	665.6
645.123	670.8
645.54	653.4
645.957	674.6
646.374	681
646.77	659.2
647.187	702.8
647.604	673.8
648.021	650.4
648.439	657.6
648.835	666.6
649.252	672
649.67	665.8
650.088	673.8
650.484	673.2
650.902	675.8
651.32	673
651.738	658.6
652.134	675.4
652.552	686.4
652.971	681.8
653.389	677
653.786	687.4
654.204	688.6
654.622	654.6
655.019	666.2
655.438	664.2
655.857	667.6
656.275	669.2
656.673	663.2
657.091	749.4
657.51	659.2
657.908	671.2
658.327	683.2
658.746	652
659.144	662
659.563	684.2
659.982	669.8
660.38	658.2
660.8	668
661.219	678.4
661.617	678.6
662.037	658.2
662.457	694.2
662.855	649.4
663.275	702.2
663.695	654.8
664.094	659
664.514	673.8
664.934	651.2
665.333	681
665.753	654.8
666.152	653.2
666.572	665.6
666.993	677.8
667.392	665.4
667.812	667
668.212	658
668.632	684
669.053	664.2
669.453	670.6
669.874	672.6
670.273	665
670.694	657
671.116	679
671.515	679.4
671.937	666.4
672.337	664.8
672.758	656.6
673.158	676
673.58	653.6
673.98	672.8
674.402	681.4
674.824	663.2
675.224	658.8
675.646	658
676.047	661.2
676.469	663.8
676.869	665.8
677.292	677.4
677.693	657.2
678.115	661.4
678.516	665.6
678.939	667
679.34	656.8
679.762	683.2
680.164	664.6
680.586	652.2
680.988	667
681.411	685.8
681.812	661.4
682.236	659.8
682.637	654.4
683.061	652.8
683.462	665.6
683.864	654.2
684.288	670.8
684.69	654.8
685.114	675
685.516	667
685.94	656.4
686.342	672.2
686.766	659.2
687.168	656.2
687.571	680.8
687.995	663.2
688.398	659.8
688.822	668.8
689.225	685
689.628	691.8
690.052	669.2
690.456	672.4
690.88	665.2
691.284	657.4
691.687	669.4
692.112	650.2
692.515	658.2
692.919	660.8
693.344	667.2
693.747	665.6
694.173	658.4
694.577	677
694.98	664.6
695.406	663
695.81	665
696.214	665.2
696.64	670.2
697.044	668.6
697.448	664.4
697.874	662
698.279	668.4
698.684	657.6
699.11	668.4
699.514	662.4
699.919	657.6
700.324	658.2
700.75	667
701.156	665.2
701.561	674
701.987	672.2
702.393	672.4
702.798	685.4
703.203	664.6
703.63	653
704.036	655.8
704.442	664.4
704.847	654.6
705.274	657.4
705.68	667.6
706.086	673
706.492	649.6
706.92	662.2
707.326	670
707.732	660.4
708.139	654
708.545	655.8
708.973	666.6
709.38	658.8
709.786	645.8
710.193	687.2
710.6	665.2
711.028	650.8
711.435	653.6
711.842	662.8
712.249	655.2
712.656	670.6
713.064	677.8
713.492	656.2
713.9	662.2
714.307	670.6
714.715	664.2
715.123	662.2
715.53	666.8
715.938	667.6
716.367	656.6
716.775	657.8
717.184	658
717.592	656.2
718	674.6
718.408	696.6
718.816	709.8
719.225	663.2
719.633	659.4
720.042	657.8
720.472	659.4
720.881	672.4
721.29	671
721.699	650.2
722.108	664
722.517	662.8
722.926	661.2
723.335	672.2
723.744	664.2
724.154	665.2
724.563	662.8
724.973	666.2
725.382	669
725.792	663.2
726.202	657.2
726.612	685.2
727.022	670.6
727.432	662.4
779.813	660.8
780.223	715.6
780.634	671.4
781.044	650.4
781.454	661.4
781.865	676.8
782.276	655.4
782.686	668
783.097	660.2
783.508	658.8
783.919	667.4
784.33	676.6
784.741	678.4
785.152	653.2
785.563	651
785.974	656.8
786.386	669
786.776	661
787.188	670
787.599	657.4
788.011	681.2
788.423	660.2
788.835	653
789.247	662
789.659	655.2
790.071	660.2
790.483	698.4
790.874	662.8
791.286	665.2
791.699	652
792.111	658.2
792.524	664.8
792.937	656
793.349	647
793.741	655.4
794.154	655
794.567	678.6
794.98	655
795.393	639.8
795.785	670.4
796.198	653.2
796.612	660.8
797.026	662.2
797.439	638.4
797.831	662.8
798.245	653.2
798.659	660.6
799.073	648.2
799.487	651.8
799.88	663.2
800.294	660.6
800.708	655.8
801.123	671.6
801.516	681.2
801.93	647
802.345	643.8
802.76	663
803.153	674
803.568	677.2
803.983	678.6
804.377	662.8
804.792	653
805.207	650
805.601	657.8
806.016	689
806.432	650.8
806.826	698.8
807.242	683.2
807.658	666.4
808.052	650.2
808.468	657
808.884	659
809.279	659
809.695	673.6
810.111	689.4
810.506	664.4
810.922	678.4
811.339	668.8
811.734	668.2
812.151	657.8
812.546	648.4
812.963	657.2
813.38	662
813.776	660
814.193	685.6
814.589	657.4
815.006	660.4
815.402	653.8
815.82	650
816.237	666.4
816.633	661
817.051	662
817.448	660
817.866	651.8
818.262	685.8
818.68	655.8
819.077	660.2
819.495	659.2
819.892	713
820.311	652.6
820.708	663.4
821.127	657
821.524	666.8
821.943	673.4
822.34	676.2
822.759	668
823.157	651.2
823.576	669.4
823.974	670.6
824.393	782.4
824.791	663.2
825.189	654
825.609	655.4
826.007	658.8
826.427	647.8
826.826	656.8
827.246	662.8
827.644	634.8
828.043	676.6
828.463	650.4
828.862	663.4
829.261	668.8
829.682	644.2
830.081	673.8
830.502	646.4
830.901	668
831.301	647.8
831.722	639.8
832.121	661
832.521	657.8
832.943	654
833.342	651.6
833.742	649.2
834.164	654.8
834.564	653.8
834.965	657
835.386	650
835.787	661.4
836.188	662.8
836.588	657.6
837.01	659
837.411	648.6
837.812	659.2
838.213	657.2
838.636	652.6
839.037	738.4
839.438	667.6
839.84	662.4
840.263	666.6
840.664	659.8
841.066	655.6
841.468	663.8
841.891	652.4
842.293	673.8
842.695	665.6
843.098	665
843.5	660
843.902	665.8
844.326	658.6
844.729	665
845.131	678.4
845.534	663.8
845.937	678.2
846.34	679.2
846.764	652.2
847.167	667.4
847.571	649.2
847.974	652.6
848.377	654.2
848.781	720
849.184	666
849.588	657.6
849.992	656
850.396	659
850.821	678.6
851.225	671.2
851.63	657.6
852.034	676
852.438	652.8
852.843	705.4
853.247	646.4
853.652	657.4
854.057	673
854.462	650.8
854.867	661.4
855.272	696.6
855.677	668.6
856.082	649.4
856.487	650.6
856.893	674
857.298	653.6
857.704	658.4
858.11	663.4
858.516	661.2
858.922	654.6
859.328	675.2
859.734	657.2
860.14	657.8
860.525	660
860.931	647.8
861.338	656.8
861.745	667
862.151	659.4
862.558	661
862.965	656.4
863.372	644.8
863.779	654
864.186	673.8
864.572	662.2
864.98	677.6
865.387	695.2
865.795	644.4
866.203	665.6
866.61	655
867.018	671.8
867.405	663.6
867.813	655.2
868.221	649.8
868.63	650.4
869.038	663.2
869.425	712
869.834	654.4
870.243	651
870.652	651
871.039	655
871.448	651.4
871.857	666.2
872.266	658.6
872.654	655.4
873.064	653.2
873.473	672
873.883	647.8
874.271	649
874.681	661.6
875.091	638.4
875.48	662.2
875.89	682.6
876.3	655.4
876.689	638.2
877.1	655.8
877.51	657.4
877.9	678
878.31	651.8
878.721	700.8
879.111	661.2
879.522	650.8
879.933	650.2
880.323	646
880.734	652
881.125	666.2
881.536	653.2
881.948	658.2
882.338	658.2
882.75	668.8
883.141	653.4
883.553	656.4
883.944	689.6
884.356	664.6
884.769	656.6
885.16	673.6
885.573	659.6
885.964	652.8
886.377	649.4
886.768	642
887.181	658.4
887.573	652
887.987	670.8
888.378	681
888.792	669.8
889.184	710.4
889.598	647.2
889.99	651.4
890.383	652.6
890.797	646.4
891.19	666.8
891.604	643
891.997	644.8
892.411	637
892.805	649.4
893.198	640.8
893.613	635.4
894.006	648.4
894.421	643.4
894.815	648.4
895.209	647.2
895.624	697.8
896.018	682
896.412	640.2
896.828	651.6
897.222	659.6
897.617	649.6
898.033	676.8
898.427	653.4
898.822	655.4
899.239	643.4
899.634	657.6
900.029	664.4
900.424	665.2
900.841	639.6
901.236	664.2
901.632	656.6
902.027	727
902.445	661.4
902.841	664.6
903.237	660.8
903.633	670.2
904.05	668
904.447	656.6
904.843	666.6
905.24	654.6
905.636	644.4
906.033	654.8
906.451	673.8
906.848	652
907.246	653.2
907.643	658.2
908.04	653.8
908.438	674.8
908.835	661
909.254	660.8
909.652	663.8
910.05	652
910.448	656.6
910.846	664.8
911.244	639.6
911.643	657.4
912.041	658.4
912.44	673.6
912.839	651.6
913.237	647.2
913.636	648.8
914.035	654.2
914.434	658
914.834	666
915.233	668.8
915.633	660
916.032	644.4
916.432	641.4
916.832	671.8
917.232	651.2
917.632	644.4
918.032	655.6
918.432	642.8
918.833	654.2
919.233	660.8
919.634	640.2
920.035	657.4
920.436	640.2
920.837	660.6
921.238	646.2
921.639	648.4
922.019	655.2
922.42	652.8
922.822	662
923.224	651.6
923.625	647
924.027	658
924.429	680.2
924.81	657.2
925.212	655.6
925.615	661.6
926.017	659.8
926.42	667
926.801	651
927.204	647.8
927.607	671.8
928.01	678.8
928.413	662.4
928.795	640.4
929.199	651.6
929.602	646.4
930.006	638.8
930.388	647.8
930.792	654.2
931.196	653
931.579	693.2
931.983	641.2
932.388	718.8
932.771	658.2
933.176	646.2
933.58	643.6
933.964	657.2
934.369	636.8
934.774	661.6
935.158	656.2
935.563	657
935.947	659.4
936.353	658.6
936.759	658
937.143	658
937.549	651.6
937.934	670.6
938.34	671.4
938.746	637.6
939.131	651.8
939.538	643.4
939.923	663.2
940.33	647.2
940.716	650.6
941.123	660
941.508	663.6
941.916	675.6
942.302	663.2
942.709	653
943.096	645.6
943.503	661.8
943.89	659.8
944.298	648.8
944.685	691.6
945.072	660
945.48	675.2
945.867	638.4
946.276	650.4
946.663	682.4
947.051	679.6
947.46	666.8
947.848	665.8
948.257	646.8
948.645	646.6
949.033	645.4
949.443	647.8
949.831	700.6
950.22	649.2
950.63	657.6
951.018	684.8
951.407	648.4
951.796	638
952.207	655.2
952.596	662
952.985	642.4
953.375	702.2
953.786	657.8
954.176	641.2
954.566	662.2
954.956	655.2
955.367	649.2
955.758	685.6
956.148	649
956.539	666.6
956.929	638.8
957.341	645.4
957.732	652
958.123	656.2
958.515	647.8
958.906	663.4
959.297	655
959.689	657.2
960.102	640
960.494	656.4
960.886	647.6
961.278	649.6
961.67	687.4
962.062	698
962.455	659
962.847	645.6
963.24	649.6
963.633	655.6
964.026	643.8
964.419	653.8
964.812	670
965.206	646.6
965.599	661.2
965.993	658.6
966.386	648.6
966.78	661.4
967.174	664.2
967.569	645.4
967.963	646.4
968.357	642.4
968.752	636.4
969.146	637.8
969.541	646
969.936	647
970.331	653.8
970.705	645.4
971.1	649
971.496	661
971.892	641.8
972.287	644.8
972.683	650.2
973.079	652.2
973.454	666.2
973.85	664
974.247	656.8
974.643	678.8
975.04	657.2
975.415	651.8
975.812	641.6
976.209	652.4
976.607	635
976.982	665.6
977.38	680.2
977.778	654
978.175	652.2
978.552	653.8
978.95	656.2
979.348	662.4
979.725	700.2
980.123	649
980.522	655.8
980.899	654
981.298	645.8
981.697	661.2
982.075	642.8
982.474	649.4
982.852	657.2
983.251	660.4
983.651	651.2
984.029	657.6
984.429	657.8
984.808	643
985.208	648
985.609	645.2
985.987	641.8
986.388	644.8
986.768	666.6
987.168	647.6
987.548	657
987.949	665.4
988.329	660.2
988.731	637
989.111	654.6
989.491	657.6
989.893	655.6
990.273	662.8
990.676	645.4
991.057	639.4
991.459	645
991.84	649.6
992.221	633.4
992.624	671.4
993.006	652.6
993.388	642.8
993.791	652.6
994.173	651.6
994.576	689.4
994.959	641.6
995.341	643.8
995.724	648.4
996.128	647.2
996.511	651.2
996.894	650.6
997.298	651.4
997.681	654.2
998.065	646.8
998.448	653.6
998.854	667.2
999.237	633
999.621	667.4
1000.01	678.2
1000.39	653
1000.8	643.4
1001.18	653.4
1001.56	655
1001.95	653
1002.33	663
1002.72	646.4
1003.13	650.6
1003.51	644.6
1003.9	641
1004.28	674.2
1004.67	647.2
1005.06	653.6
1005.44	686.2
1005.83	647.8
1006.21	662.2
1006.6	646.2
1006.99	671
1007.37	666.8
1007.76	664
1060.12	649.6
1060.51	645.2
1060.89	659.8
1061.28	659.8
1061.67	666
1062.06	658
1062.45	662.4
1062.83	638
1063.22	668.2
1063.61	696
1064	661.4
1064.39	647.2
1064.78	648.6
1065.14	663.2
1065.53	655.4
1065.92	656.2
1066.31	641.2
1066.7	658.4
1067.09	673.8
1067.46	663.4
1067.85	660.8
1068.24	644.8
1068.63	658
1069.02	639.4
1069.39	660.4
1069.78	652.2
1070.17	640.8
1070.57	643.6
1070.93	659.4
1071.33	649
1071.72	648.4
1072.11	643
1072.48	640.4
1072.87	647.4
1073.26	648.8
1073.64	643
1074.03	643.6
1074.4	646.8
1074.79	649.6
1075.19	656.6
1075.56	657.8
1075.95	652.6
1076.34	647.8
1076.72	653.8
1077.11	657.4
1077.48	671.8
1077.88	644.4
1078.25	654.8
1078.64	664
1079.02	657.8
1079.41	664
1079.78	646
1080.18	649.8
1080.55	726.6
1080.95	645.6
1081.32	646
1081.72	661.8
1082.09	646.8
1082.49	638.4
1082.86	647.6
1083.24	647.8
1083.63	636.4
1084.01	642.4
1084.38	653.8
1084.78	636.2
1085.16	649.2
1085.55	664.8
1085.93	661.8
1086.31	639
1086.7	684.8
1087.08	650.8
1087.46	651.8
1087.83	642.4
1088.23	670.4
1088.61	642.6
1088.99	664.6
1089.36	650.6
1089.76	649
1090.14	650
1090.52	647.2
1090.9	648
1091.27	655.6
1091.67	684.8
1092.05	653.2
1092.43	643.4
1092.81	665
1093.19	662.6
1093.57	648.6
1093.95	642.4
1094.35	666.4
1094.73	658.8
1095.11	645.4
1095.49	646
1095.87	651.6
1096.25	668.2
1096.63	656.8
1097.01	648
1097.39	651.6
1097.77	649.4
1098.15	647.6
1098.53	639.2
1098.91	643
1099.29	654.6
1099.68	662.4
1100.06	653.8
1100.44	645.2
1100.82	641.8
1101.18	662.6
1101.56	642.4
1101.95	643.2
1102.33	643.8
1102.71	651
1103.1	640.8
1103.48	634.2
1103.86	637.2
1104.22	660.4
1104.61	639
1104.99	636.4
1105.38	648
1105.76	651.4
1106.12	652
1106.51	693.4
1106.89	662.4
1107.26	651.6
1107.64	655
1108.03	648.6
1108.41	650.8
1108.78	651.2
1109.16	654.4
1109.55	653.2
1109.91	630.6
1110.3	644.2
1110.69	671
1111.05	649.6
1111.44	654.2
1111.8	663.2
1112.19	643.8
1112.58	658.4
1112.94	649.8
1113.33	641.8
1113.7	635
1114.09	640.6
1114.45	646.8
1114.84	651.8
1115.21	654.2
1115.6	641.4
1115.96	658.4
1116.35	645.2
1116.72	634.8
1117.11	654
1117.48	634.8
1117.85	645
1118.24	657
1118.6	646
1118.99	641.6
1119.36	650.2
1119.73	647.8
1120.12	643.4
1120.49	637.6
1120.86	658.2
1121.25	641.2
1121.62	634.4
1121.99	636.6
1122.38	670.4
1122.76	653.8
1123.13	651.8
1123.5	649.6
1123.89	665.6
1124.26	637
1124.63	648
1125	646.8
1125.4	650.4
1125.77	643.4
1126.14	625.6
1126.51	647.6
1126.88	648.4
1127.26	633.6
1127.63	632
1128.02	635.6
1128.4	651.4
1128.77	643
1129.14	645.6
1129.52	652.4
1129.89	652.8
1130.26	648.4
1130.64	640.4
1131.01	633.8
